# ITO - d=165.00nm, RMS=0.089128
# λ(nm)  n  k
4.000000e+02 2.110000e+00 0.000000e+00
4.010000e+02 2.101301e+00 0.000000e+00
4.020000e+02 2.092774e+00 0.000000e+00
4.030000e+02 2.084436e+00 0.000000e+00
4.040000e+02 2.076300e+00 0.000000e+00
4.050000e+02 2.068384e+00 0.000000e+00
4.060000e+02 2.060702e+00 0.000000e+00
4.070000e+02 2.053271e+00 0.000000e+00
4.080000e+02 2.046105e+00 0.000000e+00
4.090000e+02 2.039220e+00 0.000000e+00
4.100000e+02 2.032632e+00 0.000000e+00
4.110000e+02 2.026356e+00 0.000000e+00
4.120000e+02 2.020409e+00 0.000000e+00
4.130000e+02 2.014804e+00 0.000000e+00
4.140000e+02 2.009559e+00 0.000000e+00
4.150000e+02 2.004688e+00 0.000000e+00
4.160000e+02 2.000207e+00 0.000000e+00
4.170000e+02 1.996132e+00 0.000000e+00
4.180000e+02 1.992478e+00 0.000000e+00
4.190000e+02 1.989261e+00 0.000000e+00
4.200000e+02 1.986496e+00 0.000000e+00
4.210000e+02 1.984199e+00 0.000000e+00
4.220000e+02 1.982385e+00 0.000000e+00
4.230000e+02 1.981070e+00 0.000000e+00
4.240000e+02 1.980270e+00 0.000000e+00
4.250000e+02 1.980000e+00 0.000000e+00
4.260000e+02 1.980229e+00 0.000000e+00
4.270000e+02 1.980891e+00 0.000000e+00
4.280000e+02 1.981947e+00 0.000000e+00
4.290000e+02 1.983362e+00 0.000000e+00
4.300000e+02 1.985096e+00 0.000000e+00
4.310000e+02 1.987112e+00 0.000000e+00
4.320000e+02 1.989374e+00 0.000000e+00
4.330000e+02 1.991842e+00 0.000000e+00
4.340000e+02 1.994479e+00 0.000000e+00
4.350000e+02 1.997248e+00 0.000000e+00
4.360000e+02 2.000111e+00 0.000000e+00
4.370000e+02 2.003031e+00 0.000000e+00
4.380000e+02 2.005969e+00 0.000000e+00
4.390000e+02 2.008889e+00 0.000000e+00
4.400000e+02 2.011752e+00 0.000000e+00
4.410000e+02 2.014521e+00 0.000000e+00
4.420000e+02 2.017158e+00 0.000000e+00
4.430000e+02 2.019626e+00 0.000000e+00
4.440000e+02 2.021888e+00 0.000000e+00
4.450000e+02 2.023904e+00 0.000000e+00
4.460000e+02 2.025638e+00 0.000000e+00
4.470000e+02 2.027053e+00 0.000000e+00
4.480000e+02 2.028109e+00 0.000000e+00
4.490000e+02 2.028771e+00 0.000000e+00
4.500000e+02 2.029000e+00 0.000000e+00
4.510000e+02 2.028961e+00 0.000000e+00
4.520000e+02 2.028848e+00 0.000000e+00
4.530000e+02 2.028665e+00 0.000000e+00
4.540000e+02 2.028417e+00 0.000000e+00
4.550000e+02 2.028107e+00 0.000000e+00
4.560000e+02 2.027741e+00 0.000000e+00
4.570000e+02 2.027323e+00 0.000000e+00
4.580000e+02 2.026857e+00 0.000000e+00
4.590000e+02 2.026348e+00 0.000000e+00
4.600000e+02 2.025801e+00 0.000000e+00
4.610000e+02 2.025220e+00 0.000000e+00
4.620000e+02 2.024608e+00 0.000000e+00
4.630000e+02 2.023972e+00 0.000000e+00
4.640000e+02 2.023315e+00 0.000000e+00
4.650000e+02 2.022642e+00 0.000000e+00
4.660000e+02 2.021957e+00 0.000000e+00
4.670000e+02 2.021264e+00 0.000000e+00
4.680000e+02 2.020569e+00 0.000000e+00
4.690000e+02 2.019876e+00 0.000000e+00
4.700000e+02 2.019188e+00 0.000000e+00
4.710000e+02 2.018511e+00 0.000000e+00
4.720000e+02 2.017850e+00 0.000000e+00
4.730000e+02 2.017208e+00 0.000000e+00
4.740000e+02 2.016590e+00 0.000000e+00
4.750000e+02 2.016000e+00 0.000000e+00
4.760000e+02 2.015418e+00 0.000000e+00
4.770000e+02 2.014822e+00 0.000000e+00
4.780000e+02 2.014211e+00 0.000000e+00
4.790000e+02 2.013589e+00 0.000000e+00
4.800000e+02 2.012955e+00 0.000000e+00
4.810000e+02 2.012312e+00 0.000000e+00
4.820000e+02 2.011660e+00 0.000000e+00
4.830000e+02 2.011002e+00 0.000000e+00
4.840000e+02 2.010337e+00 0.000000e+00
4.850000e+02 2.009668e+00 0.000000e+00
4.860000e+02 2.008996e+00 0.000000e+00
4.870000e+02 2.008323e+00 0.000000e+00
4.880000e+02 2.007648e+00 0.000000e+00
4.890000e+02 2.006975e+00 0.000000e+00
4.900000e+02 2.006304e+00 0.000000e+00
4.910000e+02 2.005636e+00 0.000000e+00
4.920000e+02 2.004973e+00 0.000000e+00
4.930000e+02 2.004316e+00 0.000000e+00
4.940000e+02 2.003667e+00 0.000000e+00
4.950000e+02 2.003026e+00 0.000000e+00
4.960000e+02 2.002396e+00 0.000000e+00
4.970000e+02 2.001776e+00 0.000000e+00
4.980000e+02 2.001170e+00 0.000000e+00
4.990000e+02 2.000577e+00 0.000000e+00
5.000000e+02 2.000000e+00 0.000000e+00
5.010000e+02 1.999426e+00 2.196693e-07
5.020000e+02 1.998842e+00 8.748184e-07
5.030000e+02 1.998250e+00 1.959659e-06
5.040000e+02 1.997650e+00 3.468404e-06
5.050000e+02 1.997043e+00 5.395264e-06
5.060000e+02 1.996430e+00 7.734452e-06
5.070000e+02 1.995811e+00 1.048018e-05
5.080000e+02 1.995187e+00 1.362666e-05
5.090000e+02 1.994560e+00 1.716810e-05
5.100000e+02 1.993929e+00 2.109872e-05
5.110000e+02 1.993296e+00 2.541272e-05
5.120000e+02 1.992661e+00 3.010432e-05
5.130000e+02 1.992025e+00 3.516774e-05
5.140000e+02 1.991389e+00 4.059718e-05
5.150000e+02 1.990754e+00 4.638685e-05
5.160000e+02 1.990120e+00 5.253097e-05
5.170000e+02 1.989489e+00 5.902374e-05
5.180000e+02 1.988861e+00 6.585939e-05
5.190000e+02 1.988236e+00 7.303212e-05
5.200000e+02 1.987616e+00 8.053615e-05
5.210000e+02 1.987002e+00 8.836568e-05
5.220000e+02 1.986393e+00 9.651493e-05
5.230000e+02 1.985792e+00 1.049781e-04
5.240000e+02 1.985198e+00 1.137494e-04
5.250000e+02 1.984612e+00 1.228231e-04
5.260000e+02 1.984036e+00 1.321934e-04
5.270000e+02 1.983470e+00 1.418544e-04
5.280000e+02 1.982915e+00 1.518004e-04
5.290000e+02 1.982371e+00 1.620256e-04
5.300000e+02 1.981839e+00 1.725242e-04
5.310000e+02 1.981321e+00 1.832905e-04
5.320000e+02 1.980817e+00 1.943186e-04
5.330000e+02 1.980327e+00 2.056027e-04
5.340000e+02 1.979853e+00 2.171371e-04
5.350000e+02 1.979395e+00 2.289160e-04
5.360000e+02 1.978954e+00 2.409335e-04
5.370000e+02 1.978530e+00 2.531840e-04
5.380000e+02 1.978126e+00 2.656616e-04
5.390000e+02 1.977740e+00 2.783604e-04
5.400000e+02 1.977375e+00 2.912749e-04
5.410000e+02 1.977031e+00 3.043990e-04
5.420000e+02 1.976708e+00 3.177272e-04
5.430000e+02 1.976408e+00 3.312534e-04
5.440000e+02 1.976131e+00 3.449721e-04
5.450000e+02 1.975878e+00 3.588774e-04
5.460000e+02 1.975650e+00 3.729634e-04
5.470000e+02 1.975447e+00 3.872245e-04
5.480000e+02 1.975271e+00 4.016548e-04
5.490000e+02 1.975121e+00 4.162486e-04
5.500000e+02 1.975000e+00 4.310000e-04
5.510000e+02 1.974894e+00 4.468799e-04
5.520000e+02 1.974788e+00 4.648395e-04
5.530000e+02 1.974685e+00 4.848435e-04
5.540000e+02 1.974583e+00 5.068567e-04
5.550000e+02 1.974482e+00 5.308436e-04
5.560000e+02 1.974383e+00 5.567691e-04
5.570000e+02 1.974285e+00 5.845979e-04
5.580000e+02 1.974189e+00 6.142947e-04
5.590000e+02 1.974095e+00 6.458241e-04
5.600000e+02 1.974002e+00 6.791509e-04
5.610000e+02 1.973911e+00 7.142399e-04
5.620000e+02 1.973822e+00 7.510556e-04
5.630000e+02 1.973734e+00 7.895630e-04
5.640000e+02 1.973649e+00 8.297265e-04
5.650000e+02 1.973565e+00 8.715110e-04
5.660000e+02 1.973482e+00 9.148813e-04
5.670000e+02 1.973402e+00 9.598019e-04
5.680000e+02 1.973324e+00 1.006238e-03
5.690000e+02 1.973247e+00 1.054153e-03
5.700000e+02 1.973173e+00 1.103513e-03
5.710000e+02 1.973100e+00 1.154282e-03
5.720000e+02 1.973030e+00 1.206426e-03
5.730000e+02 1.972961e+00 1.259908e-03
5.740000e+02 1.972895e+00 1.314693e-03
5.750000e+02 1.972830e+00 1.370746e-03
5.760000e+02 1.972768e+00 1.428033e-03
5.770000e+02 1.972708e+00 1.486516e-03
5.780000e+02 1.972650e+00 1.546162e-03
5.790000e+02 1.972595e+00 1.606935e-03
5.800000e+02 1.972542e+00 1.668800e-03
5.810000e+02 1.972491e+00 1.731721e-03
5.820000e+02 1.972442e+00 1.795663e-03
5.830000e+02 1.972396e+00 1.860591e-03
5.840000e+02 1.972352e+00 1.926469e-03
5.850000e+02 1.972310e+00 1.993263e-03
5.860000e+02 1.972271e+00 2.060936e-03
5.870000e+02 1.972235e+00 2.129455e-03
5.880000e+02 1.972201e+00 2.198782e-03
5.890000e+02 1.972169e+00 2.268884e-03
5.900000e+02 1.972141e+00 2.339724e-03
5.910000e+02 1.972114e+00 2.411268e-03
5.920000e+02 1.972091e+00 2.483481e-03
5.930000e+02 1.972070e+00 2.556326e-03
5.940000e+02 1.972051e+00 2.629769e-03
5.950000e+02 1.972036e+00 2.703774e-03
5.960000e+02 1.972023e+00 2.778306e-03
5.970000e+02 1.972013e+00 2.853330e-03
5.980000e+02 1.972006e+00 2.928811e-03
5.990000e+02 1.972001e+00 3.004712e-03
6.000000e+02 1.972000e+00 3.081000e-03
6.010000e+02 1.972000e+00 3.159742e-03
6.020000e+02 1.972000e+00 3.242945e-03
6.030000e+02 1.972000e+00 3.330478e-03
6.040000e+02 1.972000e+00 3.422213e-03
6.050000e+02 1.972000e+00 3.518019e-03
6.060000e+02 1.972000e+00 3.617767e-03
6.070000e+02 1.972000e+00 3.721328e-03
6.080000e+02 1.972000e+00 3.828572e-03
6.090000e+02 1.972000e+00 3.939370e-03
6.100000e+02 1.972000e+00 4.053591e-03
6.110000e+02 1.972000e+00 4.171107e-03
6.120000e+02 1.972000e+00 4.291788e-03
6.130000e+02 1.972000e+00 4.415505e-03
6.140000e+02 1.972000e+00 4.542127e-03
6.150000e+02 1.972000e+00 4.671525e-03
6.160000e+02 1.972000e+00 4.803570e-03
6.170000e+02 1.972000e+00 4.938133e-03
6.180000e+02 1.972000e+00 5.075083e-03
6.190000e+02 1.972000e+00 5.214291e-03
6.200000e+02 1.972000e+00 5.355627e-03
6.210000e+02 1.972000e+00 5.498963e-03
6.220000e+02 1.972000e+00 5.644168e-03
6.230000e+02 1.972000e+00 5.791114e-03
6.240000e+02 1.972000e+00 5.939669e-03
6.250000e+02 1.972000e+00 6.089706e-03
6.260000e+02 1.972000e+00 6.241094e-03
6.270000e+02 1.972000e+00 6.393703e-03
6.280000e+02 1.972000e+00 6.547405e-03
6.290000e+02 1.972000e+00 6.702070e-03
6.300000e+02 1.972000e+00 6.857568e-03
6.310000e+02 1.972000e+00 7.013769e-03
6.320000e+02 1.972000e+00 7.170545e-03
6.330000e+02 1.972000e+00 7.327765e-03
6.340000e+02 1.972000e+00 7.485300e-03
6.350000e+02 1.972000e+00 7.643021e-03
6.360000e+02 1.972000e+00 7.800797e-03
6.370000e+02 1.972000e+00 7.958500e-03
6.380000e+02 1.972000e+00 8.116000e-03
6.390000e+02 1.972000e+00 8.273167e-03
6.400000e+02 1.972000e+00 8.429872e-03
6.410000e+02 1.972000e+00 8.585985e-03
6.420000e+02 1.972000e+00 8.741377e-03
6.430000e+02 1.972000e+00 8.895918e-03
6.440000e+02 1.972000e+00 9.049479e-03
6.450000e+02 1.972000e+00 9.201929e-03
6.460000e+02 1.972000e+00 9.353141e-03
6.470000e+02 1.972000e+00 9.502983e-03
6.480000e+02 1.972000e+00 9.651326e-03
6.490000e+02 1.972000e+00 9.798042e-03
6.500000e+02 1.972000e+00 9.943000e-03
6.510000e+02 1.971994e+00 1.008809e-02
6.520000e+02 1.971975e+00 1.023523e-02
6.530000e+02 1.971944e+00 1.038429e-02
6.540000e+02 1.971902e+00 1.053517e-02
6.550000e+02 1.971848e+00 1.068775e-02
6.560000e+02 1.971783e+00 1.084194e-02
6.570000e+02 1.971708e+00 1.099760e-02
6.580000e+02 1.971623e+00 1.115464e-02
6.590000e+02 1.971528e+00 1.131295e-02
6.600000e+02 1.971424e+00 1.147240e-02
6.610000e+02 1.971311e+00 1.163290e-02
6.620000e+02 1.971189e+00 1.179432e-02
6.630000e+02 1.971059e+00 1.195656e-02
6.640000e+02 1.970921e+00 1.211952e-02
6.650000e+02 1.970776e+00 1.228306e-02
6.660000e+02 1.970624e+00 1.244709e-02
6.670000e+02 1.970465e+00 1.261150e-02
6.680000e+02 1.970300e+00 1.277617e-02
6.690000e+02 1.970129e+00 1.294099e-02
6.700000e+02 1.969952e+00 1.310585e-02
6.710000e+02 1.969770e+00 1.327065e-02
6.720000e+02 1.969584e+00 1.343526e-02
6.730000e+02 1.969393e+00 1.359958e-02
6.740000e+02 1.969198e+00 1.376349e-02
6.750000e+02 1.969000e+00 1.392689e-02
6.760000e+02 1.968798e+00 1.408967e-02
6.770000e+02 1.968594e+00 1.425171e-02
6.780000e+02 1.968387e+00 1.441290e-02
6.790000e+02 1.968178e+00 1.457314e-02
6.800000e+02 1.967968e+00 1.473230e-02
6.810000e+02 1.967756e+00 1.489029e-02
6.820000e+02 1.967544e+00 1.504698e-02
6.830000e+02 1.967330e+00 1.520227e-02
6.840000e+02 1.967117e+00 1.535605e-02
6.850000e+02 1.966904e+00 1.550820e-02
6.860000e+02 1.966692e+00 1.565862e-02
6.870000e+02 1.966480e+00 1.580719e-02
6.880000e+02 1.966270e+00 1.595380e-02
6.890000e+02 1.966062e+00 1.609834e-02
6.900000e+02 1.965856e+00 1.624070e-02
6.910000e+02 1.965653e+00 1.638078e-02
6.920000e+02 1.965452e+00 1.651844e-02
6.930000e+02 1.965255e+00 1.665360e-02
6.940000e+02 1.965061e+00 1.678613e-02
6.950000e+02 1.964872e+00 1.691593e-02
6.960000e+02 1.964687e+00 1.704288e-02
6.970000e+02 1.964507e+00 1.716687e-02
6.980000e+02 1.964332e+00 1.728780e-02
6.990000e+02 1.964163e+00 1.740554e-02
7.000000e+02 1.964000e+00 1.752000e-02
7.010000e+02 1.963840e+00 1.763336e-02
7.020000e+02 1.963680e+00 1.774782e-02
7.030000e+02 1.963520e+00 1.786323e-02
7.040000e+02 1.963360e+00 1.797949e-02
7.050000e+02 1.963200e+00 1.809645e-02
7.060000e+02 1.963040e+00 1.821399e-02
7.070000e+02 1.962880e+00 1.833198e-02
7.080000e+02 1.962720e+00 1.845030e-02
7.090000e+02 1.962560e+00 1.856880e-02
7.100000e+02 1.962400e+00 1.868738e-02
7.110000e+02 1.962240e+00 1.880589e-02
7.120000e+02 1.962080e+00 1.892420e-02
7.130000e+02 1.961920e+00 1.904220e-02
7.140000e+02 1.961760e+00 1.915975e-02
7.150000e+02 1.961600e+00 1.927673e-02
7.160000e+02 1.961440e+00 1.939300e-02
7.170000e+02 1.961280e+00 1.950843e-02
7.180000e+02 1.961120e+00 1.962291e-02
7.190000e+02 1.960960e+00 1.973629e-02
7.200000e+02 1.960800e+00 1.984845e-02
7.210000e+02 1.960640e+00 1.995927e-02
7.220000e+02 1.960480e+00 2.006862e-02
7.230000e+02 1.960320e+00 2.017636e-02
7.240000e+02 1.960160e+00 2.028236e-02
7.250000e+02 1.960000e+00 2.038651e-02
7.260000e+02 1.959840e+00 2.048867e-02
7.270000e+02 1.959680e+00 2.058871e-02
7.280000e+02 1.959520e+00 2.068650e-02
7.290000e+02 1.959360e+00 2.078193e-02
7.300000e+02 1.959200e+00 2.087485e-02
7.310000e+02 1.959040e+00 2.096513e-02
7.320000e+02 1.958880e+00 2.105266e-02
7.330000e+02 1.958720e+00 2.113730e-02
7.340000e+02 1.958560e+00 2.121893e-02
7.350000e+02 1.958400e+00 2.129741e-02
7.360000e+02 1.958240e+00 2.137262e-02
7.370000e+02 1.958080e+00 2.144443e-02
7.380000e+02 1.957920e+00 2.151270e-02
7.390000e+02 1.957760e+00 2.157732e-02
7.400000e+02 1.957600e+00 2.163816e-02
7.410000e+02 1.957440e+00 2.169508e-02
7.420000e+02 1.957280e+00 2.174795e-02
7.430000e+02 1.957120e+00 2.179666e-02
7.440000e+02 1.956960e+00 2.184106e-02
7.450000e+02 1.956800e+00 2.188104e-02
7.460000e+02 1.956640e+00 2.191646e-02
7.470000e+02 1.956480e+00 2.194719e-02
7.480000e+02 1.956320e+00 2.197311e-02
7.490000e+02 1.956160e+00 2.199409e-02
7.500000e+02 1.956000e+00 2.201000e-02
7.510000e+02 1.955840e+00 2.202323e-02
7.520000e+02 1.955679e+00 2.203625e-02
7.530000e+02 1.955518e+00 2.204907e-02
7.540000e+02 1.955357e+00 2.206168e-02
7.550000e+02 1.955195e+00 2.207407e-02
7.560000e+02 1.955033e+00 2.208625e-02
7.570000e+02 1.954871e+00 2.209821e-02
7.580000e+02 1.954709e+00 2.210995e-02
7.590000e+02 1.954546e+00 2.212147e-02
7.600000e+02 1.954383e+00 2.213276e-02
7.610000e+02 1.954220e+00 2.214382e-02
7.620000e+02 1.954057e+00 2.215466e-02
7.630000e+02 1.953893e+00 2.216525e-02
7.640000e+02 1.953730e+00 2.217562e-02
7.650000e+02 1.953566e+00 2.218574e-02
7.660000e+02 1.953403e+00 2.219563e-02
7.670000e+02 1.953239e+00 2.220527e-02
7.680000e+02 1.953076e+00 2.221466e-02
7.690000e+02 1.952912e+00 2.222381e-02
7.700000e+02 1.952749e+00 2.223270e-02
7.710000e+02 1.952585e+00 2.224135e-02
7.720000e+02 1.952422e+00 2.224973e-02
7.730000e+02 1.952259e+00 2.225786e-02
7.740000e+02 1.952096e+00 2.226572e-02
7.750000e+02 1.951933e+00 2.227332e-02
7.760000e+02 1.951771e+00 2.228065e-02
7.770000e+02 1.951608e+00 2.228772e-02
7.780000e+02 1.951446e+00 2.229451e-02
7.790000e+02 1.951285e+00 2.230103e-02
7.800000e+02 1.951123e+00 2.230727e-02
7.810000e+02 1.950962e+00 2.231323e-02
7.820000e+02 1.950801e+00 2.231891e-02
7.830000e+02 1.950641e+00 2.232431e-02
7.840000e+02 1.950481e+00 2.232941e-02
7.850000e+02 1.950322e+00 2.233423e-02
7.860000e+02 1.950163e+00 2.233876e-02
7.870000e+02 1.950004e+00 2.234299e-02
7.880000e+02 1.949846e+00 2.234692e-02
7.890000e+02 1.949689e+00 2.235056e-02
7.900000e+02 1.949532e+00 2.235389e-02
7.910000e+02 1.949375e+00 2.235692e-02
7.920000e+02 1.949220e+00 2.235963e-02
7.930000e+02 1.949065e+00 2.236204e-02
7.940000e+02 1.948910e+00 2.236414e-02
7.950000e+02 1.948757e+00 2.236592e-02
7.960000e+02 1.948604e+00 2.236738e-02
7.970000e+02 1.948452e+00 2.236852e-02
7.980000e+02 1.948300e+00 2.236934e-02
7.990000e+02 1.948150e+00 2.236984e-02
8.000000e+02 1.948000e+00 2.237000e-02
8.010000e+02 1.947851e+00 2.236721e-02
8.020000e+02 1.947704e+00 2.235894e-02
8.030000e+02 1.947557e+00 2.234536e-02
8.040000e+02 1.947411e+00 2.232661e-02
8.050000e+02 1.947266e+00 2.230286e-02
8.060000e+02 1.947123e+00 2.227426e-02
8.070000e+02 1.946980e+00 2.224097e-02
8.080000e+02 1.946837e+00 2.220315e-02
8.090000e+02 1.946696e+00 2.216095e-02
8.100000e+02 1.946555e+00 2.211453e-02
8.110000e+02 1.946415e+00 2.206404e-02
8.120000e+02 1.946276e+00 2.200965e-02
8.130000e+02 1.946137e+00 2.195151e-02
8.140000e+02 1.945999e+00 2.188979e-02
8.150000e+02 1.945861e+00 2.182462e-02
8.160000e+02 1.945723e+00 2.175618e-02
8.170000e+02 1.945586e+00 2.168462e-02
8.180000e+02 1.945450e+00 2.161009e-02
8.190000e+02 1.945314e+00 2.153276e-02
8.200000e+02 1.945178e+00 2.145278e-02
8.210000e+02 1.945042e+00 2.137030e-02
8.220000e+02 1.944906e+00 2.128549e-02
8.230000e+02 1.944771e+00 2.119850e-02
8.240000e+02 1.944635e+00 2.110949e-02
8.250000e+02 1.944500e+00 2.101861e-02
8.260000e+02 1.944365e+00 2.092603e-02
8.270000e+02 1.944229e+00 2.083190e-02
8.280000e+02 1.944094e+00 2.073637e-02
8.290000e+02 1.943958e+00 2.063961e-02
8.300000e+02 1.943822e+00 2.054176e-02
8.310000e+02 1.943686e+00 2.044300e-02
8.320000e+02 1.943550e+00 2.034347e-02
8.330000e+02 1.943414e+00 2.024333e-02
8.340000e+02 1.943277e+00 2.014273e-02
8.350000e+02 1.943139e+00 2.004185e-02
8.360000e+02 1.943001e+00 1.994083e-02
8.370000e+02 1.942863e+00 1.983982e-02
8.380000e+02 1.942724e+00 1.973900e-02
8.390000e+02 1.942585e+00 1.963850e-02
8.400000e+02 1.942445e+00 1.953850e-02
8.410000e+02 1.942304e+00 1.943915e-02
8.420000e+02 1.942163e+00 1.934059e-02
8.430000e+02 1.942020e+00 1.924301e-02
8.440000e+02 1.941877e+00 1.914654e-02
8.450000e+02 1.941734e+00 1.905134e-02
8.460000e+02 1.941589e+00 1.895758e-02
8.470000e+02 1.941443e+00 1.886541e-02
8.480000e+02 1.941296e+00 1.877498e-02
8.490000e+02 1.941149e+00 1.868646e-02
8.500000e+02 1.941000e+00 1.860000e-02
8.510000e+02 1.940850e+00 1.851403e-02
8.520000e+02 1.940698e+00 1.842692e-02
8.530000e+02 1.940544e+00 1.833870e-02
8.540000e+02 1.940389e+00 1.824941e-02
8.550000e+02 1.940232e+00 1.815909e-02
8.560000e+02 1.940074e+00 1.806778e-02
8.570000e+02 1.939914e+00 1.797553e-02
8.580000e+02 1.939753e+00 1.788237e-02
8.590000e+02 1.939591e+00 1.778834e-02
8.600000e+02 1.939428e+00 1.769348e-02
8.610000e+02 1.939264e+00 1.759784e-02
8.620000e+02 1.939099e+00 1.750144e-02
8.630000e+02 1.938933e+00 1.740434e-02
8.640000e+02 1.938767e+00 1.730657e-02
8.650000e+02 1.938600e+00 1.720818e-02
8.660000e+02 1.938432e+00 1.710919e-02
8.670000e+02 1.938264e+00 1.700966e-02
8.680000e+02 1.938095e+00 1.690962e-02
8.690000e+02 1.937926e+00 1.680912e-02
8.700000e+02 1.937757e+00 1.670818e-02
8.710000e+02 1.937587e+00 1.660686e-02
8.720000e+02 1.937418e+00 1.650519e-02
8.730000e+02 1.937249e+00 1.640322e-02
8.740000e+02 1.937079e+00 1.630097e-02
8.750000e+02 1.936910e+00 1.619850e-02
8.760000e+02 1.936742e+00 1.609585e-02
8.770000e+02 1.936573e+00 1.599304e-02
8.780000e+02 1.936405e+00 1.589013e-02
8.790000e+02 1.936238e+00 1.578715e-02
8.800000e+02 1.936071e+00 1.568414e-02
8.810000e+02 1.935905e+00 1.558115e-02
8.820000e+02 1.935740e+00 1.547821e-02
8.830000e+02 1.935576e+00 1.537536e-02
8.840000e+02 1.935412e+00 1.527265e-02
8.850000e+02 1.935250e+00 1.517011e-02
8.860000e+02 1.935089e+00 1.506778e-02
8.870000e+02 1.934929e+00 1.496571e-02
8.880000e+02 1.934770e+00 1.486392e-02
8.890000e+02 1.934613e+00 1.476248e-02
8.900000e+02 1.934457e+00 1.466140e-02
8.910000e+02 1.934303e+00 1.456074e-02
8.920000e+02 1.934150e+00 1.446053e-02
8.930000e+02 1.934000e+00 1.436082e-02
8.940000e+02 1.933851e+00 1.426164e-02
8.950000e+02 1.933704e+00 1.416303e-02
8.960000e+02 1.933559e+00 1.406504e-02
8.970000e+02 1.933416e+00 1.396770e-02
8.980000e+02 1.933275e+00 1.387105e-02
8.990000e+02 1.933136e+00 1.377514e-02
9.000000e+02 1.933000e+00 1.368000e-02
9.010000e+02 1.932865e+00 1.358473e-02
9.020000e+02 1.932731e+00 1.348852e-02
9.030000e+02 1.932598e+00 1.339152e-02
9.040000e+02 1.932465e+00 1.329389e-02
9.050000e+02 1.932333e+00 1.319579e-02
9.060000e+02 1.932202e+00 1.309738e-02
9.070000e+02 1.932072e+00 1.299881e-02
9.080000e+02 1.931943e+00 1.290025e-02
9.090000e+02 1.931815e+00 1.280186e-02
9.100000e+02 1.931688e+00 1.270380e-02
