PE UV       SUBTECH     SPECTRUM    ASCII       PEDS        4.00        
   -1
WO3_cuarzo_20260507_S8_5sccm_A.ASC
26/05/13
12:16:33.00
26/05/13
12:16:33.00
Edgar Rojas

250,000000
1
Lambda 1050
1050L1511233
PerkinElmer UV WinLab 6.3.2.0749 / 2.02.05 Lambda 900 UV/VIS/NIR, Aug  7 2015 09:38:08

0
0
3350/servo 860,8/2
0
0
UV/VIS
1
1
1
DoubleDePol,CommonBeamDepol,RBeamAtt,SBeamAtt,60mm sphere, WB InGaAs Detector
0
0
0
0
Program
Program
3350/servo 860,8/2
3350/0,2 840/0,2
3350/0,2 840/0,2
0
8.10
 
 
 
0
 
860,8
319,2
840
Front
100
on
S:100 R:100
0
0
0
0
 
0
 
 
 
0
 
 
0
0
0
0
0
 
 
 
 
0
0


0
0
#HDR
-1
-1
#GR
nm
%T
1.0
0.0
2000,000000
-1,000000
1751
8
88,597976
1,611494
#DATA
2000,000000	65,416237
1999,000000	65,405557
1998,000000	65,395605
1997,000000	65,371187
1996,000000	65,352525
1995,000000	65,337436
1994,000000	65,318601
1993,000000	65,310413
1992,000000	65,301217
1991,000000	65,282877
1990,000000	65,275493
1989,000000	65,263732
1988,000000	65,242542
1987,000000	65,221850
1986,000000	65,198082
1985,000000	65,159227
1984,000000	65,146901
1983,000000	65,136103
1982,000000	65,130225
1981,000000	65,102185
1980,000000	65,078222
1979,000000	65,076608
1978,000000	65,061991
1977,000000	65,055920
1976,000000	65,041661
1975,000000	65,030255
1974,000000	65,006640
1973,000000	64,989206
1972,000000	64,972582
1971,000000	64,966698
1970,000000	64,956894
1969,000000	64,935605
1968,000000	64,914628
1967,000000	64,899839
1966,000000	64,880566
1965,000000	64,862169
1964,000000	64,848631
1963,000000	64,839320
1962,000000	64,826201
1961,000000	64,809800
1960,000000	64,802336
1959,000000	64,778875
1958,000000	64,769555
1957,000000	64,771335
1956,000000	64,748528
1955,000000	64,723227
1954,000000	64,698382
1953,000000	64,681938
1952,000000	64,672598
1951,000000	64,668461
1950,000000	64,662524
1949,000000	64,645570
1948,000000	64,623675
1947,000000	64,606817
1946,000000	64,594975
1945,000000	64,579127
1944,000000	64,561099
1943,000000	64,549143
1942,000000	64,535232
1941,000000	64,520624
1940,000000	64,515265
1939,000000	64,508791
1938,000000	64,493429
1937,000000	64,487815
1936,000000	64,473722
1935,000000	64,449162
1934,000000	64,432672
1933,000000	64,426194
1932,000000	64,415400
1931,000000	64,393720
1930,000000	64,371243
1929,000000	64,359046
1928,000000	64,345399
1927,000000	64,330278
1926,000000	64,309547
1925,000000	64,300240
1924,000000	64,290698
1923,000000	64,276078
1922,000000	64,251579
1921,000000	64,236760
1920,000000	64,214667
1919,000000	64,200752
1918,000000	64,200686
1917,000000	64,188199
1916,000000	64,176398
1915,000000	64,163541
1914,000000	64,134878
1913,000000	64,110404
1912,000000	64,105330
1911,000000	64,084337
1910,000000	64,050825
1909,000000	64,039345
1908,000000	64,029494
1907,000000	64,018279
1906,000000	64,006752
1905,000000	63,994436
1904,000000	63,976249
1903,000000	63,953679
1902,000000	63,934606
1901,000000	63,918503
1900,000000	63,905005
1899,000000	63,890479
1898,000000	63,878946
1897,000000	63,862703
1896,000000	63,854508
1895,000000	63,845888
1894,000000	63,827476
1893,000000	63,807388
1892,000000	63,794675
1891,000000	63,785384
1890,000000	63,774007
1889,000000	63,760104
1888,000000	63,749660
1887,000000	63,739763
1886,000000	63,717045
1885,000000	63,701509
1884,000000	63,696475
1883,000000	63,675139
1882,000000	63,642268
1881,000000	63,615179
1880,000000	63,601319
1879,000000	63,589381
1878,000000	63,566798
1877,000000	63,552430
1876,000000	63,541389
1875,000000	63,520509
1874,000000	63,504114
1873,000000	63,486078
1872,000000	63,466054
1871,000000	63,448831
1870,000000	63,436378
1869,000000	63,432101
1868,000000	63,426807
1867,000000	63,419973
1866,000000	63,410542
1865,000000	63,395731
1864,000000	63,377391
1863,000000	63,356670
1862,000000	63,335064
1861,000000	63,318773
1860,000000	63,310403
1859,000000	63,298222
1858,000000	63,285662
1857,000000	63,274849
1856,000000	63,255899
1855,000000	63,239746
1854,000000	63,224613
1853,000000	63,205313
1852,000000	63,182437
1851,000000	63,161323
1850,000000	63,143695
1849,000000	63,122170
1848,000000	63,096431
1847,000000	63,084482
1846,000000	63,073396
1845,000000	63,056611
1844,000000	63,045339
1843,000000	63,030750
1842,000000	63,014018
1841,000000	62,988963
1840,000000	62,964979
1839,000000	62,951316
1838,000000	62,944574
1837,000000	62,934381
1836,000000	62,919147
1835,000000	62,905223
1834,000000	62,897574
1833,000000	62,882528
1832,000000	62,858295
1831,000000	62,835913
1830,000000	62,826334
1829,000000	62,817848
1828,000000	62,805099
1827,000000	62,799867
1826,000000	62,790189
1825,000000	62,766171
1824,000000	62,741756
1823,000000	62,725665
1822,000000	62,697642
1821,000000	62,670064
1820,000000	62,653420
1819,000000	62,632841
1818,000000	62,621143
1817,000000	62,620393
1816,000000	62,611206
1815,000000	62,595141
1814,000000	62,579982
1813,000000	62,562025
1812,000000	62,551111
1811,000000	62,540689
1810,000000	62,522422
1809,000000	62,505518
1808,000000	62,488284
1807,000000	62,475851
1806,000000	62,458503
1805,000000	62,440687
1804,000000	62,426457
1803,000000	62,414672
1802,000000	62,400122
1801,000000	62,378966
1800,000000	62,358625
1799,000000	62,338059
1798,000000	62,322969
1797,000000	62,309806
1796,000000	62,294154
1795,000000	62,272949
1794,000000	62,263339
1793,000000	62,263358
1792,000000	62,250840
1791,000000	62,231053
1790,000000	62,222502
1789,000000	62,209755
1788,000000	62,192681
1787,000000	62,177362
1786,000000	62,156316
1785,000000	62,140378
1784,000000	62,132811
1783,000000	62,118331
1782,000000	62,105437
1781,000000	62,089143
1780,000000	62,067375
1779,000000	62,048624
1778,000000	62,025889
1777,000000	62,016204
1776,000000	62,002017
1775,000000	61,979693
1774,000000	61,956628
1773,000000	61,953719
1772,000000	61,937704
1771,000000	61,912158
1770,000000	61,896335
1769,000000	61,884603
1768,000000	61,868301
1767,000000	61,859531
1766,000000	61,846689
1765,000000	61,828725
1764,000000	61,813499
1763,000000	61,805684
1762,000000	61,799622
1761,000000	61,790563
1760,000000	61,773691
1759,000000	61,748452
1758,000000	61,726845
1757,000000	61,711839
1756,000000	61,695223
1755,000000	61,679995
1754,000000	61,679999
1753,000000	61,668614
1752,000000	61,636073
1751,000000	61,625737
1750,000000	61,610150
1749,000000	61,583135
1748,000000	61,567209
1747,000000	61,561251
1746,000000	61,537384
1745,000000	61,527041
1744,000000	61,524674
1743,000000	61,511209
1742,000000	61,498951
1741,000000	61,476000
1740,000000	61,446071
1739,000000	61,437332
1738,000000	61,417696
1737,000000	61,418839
1736,000000	61,402662
1735,000000	61,385905
1734,000000	61,368206
1733,000000	61,351123
1732,000000	61,349745
1731,000000	61,337140
1730,000000	61,321947
1729,000000	61,294058
1728,000000	61,263092
1727,000000	61,260892
1726,000000	61,261204
1725,000000	61,247403
1724,000000	61,233653
1723,000000	61,211499
1722,000000	61,193177
1721,000000	61,174766
1720,000000	61,159612
1719,000000	61,149474
1718,000000	61,132997
1717,000000	61,121686
1716,000000	61,106245
1715,000000	61,086417
1714,000000	61,082363
1713,000000	61,062094
1712,000000	61,041807
1711,000000	61,031240
1710,000000	61,020167
1709,000000	61,006357
1708,000000	61,001371
1707,000000	60,977302
1706,000000	60,955644
1705,000000	60,936321
1704,000000	60,918397
1703,000000	60,912998
1702,000000	60,906503
1701,000000	60,891837
1700,000000	60,875073
1699,000000	60,861065
1698,000000	60,842116
1697,000000	60,831734
1696,000000	60,822329
1695,000000	60,803055
1694,000000	60,791883
1693,000000	60,784359
1692,000000	60,758876
1691,000000	60,747807
1690,000000	60,733335
1689,000000	60,706693
1688,000000	60,687683
1687,000000	60,680803
1686,000000	60,679131
1685,000000	60,660206
1684,000000	60,629595
1683,000000	60,611112
1682,000000	60,608434
1681,000000	60,598675
1680,000000	60,589139
1679,000000	60,586610
1678,000000	60,574349
1677,000000	60,562525
1676,000000	60,536754
1675,000000	60,511847
1674,000000	60,495392
1673,000000	60,484158
1672,000000	60,467669
1671,000000	60,459677
1670,000000	60,457312
1669,000000	60,442965
1668,000000	60,423790
1667,000000	60,397124
1666,000000	60,384134
1665,000000	60,370431
1664,000000	60,359670
1663,000000	60,348793
1662,000000	60,336437
1661,000000	60,331985
1660,000000	60,314159
1659,000000	60,297028
1658,000000	60,280889
1657,000000	60,266729
1656,000000	60,253233
1655,000000	60,229641
1654,000000	60,205946
1653,000000	60,194479
1652,000000	60,177296
1651,000000	60,158846
1650,000000	60,148851
1649,000000	60,146147
1648,000000	60,134633
1647,000000	60,110924
1646,000000	60,093739
1645,000000	60,076847
1644,000000	60,069768
1643,000000	60,062736
1642,000000	60,054896
1641,000000	60,037942
1640,000000	60,022079
1639,000000	60,006471
1638,000000	59,991949
1637,000000	59,978408
1636,000000	59,972323
1635,000000	59,958107
1634,000000	59,938511
1633,000000	59,915578
1632,000000	59,894628
1631,000000	59,905845
1630,000000	59,907134
1629,000000	59,881923
1628,000000	59,855387
1627,000000	59,849052
1626,000000	59,831376
1625,000000	59,807791
1624,000000	59,795200
1623,000000	59,789447
1622,000000	59,780260
1621,000000	59,762186
1620,000000	59,743027
1619,000000	59,730650
1618,000000	59,719398
1617,000000	59,697259
1616,000000	59,669899
1615,000000	59,649542
1614,000000	59,642007
1613,000000	59,639884
1612,000000	59,627917
1611,000000	59,606667
1610,000000	59,591495
1609,000000	59,597059
1608,000000	59,605393
1607,000000	59,592836
1606,000000	59,567250
1605,000000	59,550347
1604,000000	59,540131
1603,000000	59,524548
1602,000000	59,511253
1601,000000	59,501552
1600,000000	59,489024
1599,000000	59,480796
1598,000000	59,466058
1597,000000	59,448949
1596,000000	59,434453
1595,000000	59,411784
1594,000000	59,401082
1593,000000	59,395175
1592,000000	59,382199
1591,000000	59,370161
1590,000000	59,364754
1589,000000	59,359277
1588,000000	59,343893
1587,000000	59,321523
1586,000000	59,300887
1585,000000	59,282560
1584,000000	59,269499
1583,000000	59,261853
1582,000000	59,250758
1581,000000	59,232938
1580,000000	59,220382
1579,000000	59,213820
1578,000000	59,206053
1577,000000	59,196426
1576,000000	59,180822
1575,000000	59,154346
1574,000000	59,136802
1573,000000	59,123003
1572,000000	59,111819
1571,000000	59,105021
1570,000000	59,096709
1569,000000	59,091451
1568,000000	59,077143
1567,000000	59,058092
1566,000000	59,039897
1565,000000	59,026833
1564,000000	59,019489
1563,000000	59,002713
1562,000000	58,983070
1561,000000	58,973283
1560,000000	58,958716
1559,000000	58,944627
1558,000000	58,936502
1557,000000	58,921067
1556,000000	58,905017
1555,000000	58,895844
1554,000000	58,885326
1553,000000	58,876415
1552,000000	58,865567
1551,000000	58,851477
1550,000000	58,841280
1549,000000	58,816653
1548,000000	58,790094
1547,000000	58,785918
1546,000000	58,779325
1545,000000	58,762733
1544,000000	58,749842
1543,000000	58,744409
1542,000000	58,733556
1541,000000	58,718211
1540,000000	58,704937
1539,000000	58,689382
1538,000000	58,671823
1537,000000	58,657897
1536,000000	58,642518
1535,000000	58,624240
1534,000000	58,608939
1533,000000	58,599930
1532,000000	58,590769
1531,000000	58,581621
1530,000000	58,567816
1529,000000	58,554064
1528,000000	58,547430
1527,000000	58,539201
1526,000000	58,519632
1525,000000	58,500151
1524,000000	58,492588
1523,000000	58,482828
1522,000000	58,470183
1521,000000	58,458342
1520,000000	58,440482
1519,000000	58,420095
1518,000000	58,407560
1517,000000	58,399480
1516,000000	58,389723
1515,000000	58,387336
1514,000000	58,377811
1513,000000	58,362430
1512,000000	58,352191
1511,000000	58,335652
1510,000000	58,317148
1509,000000	58,303246
1508,000000	58,297795
1507,000000	58,290403
1506,000000	58,269020
1505,000000	58,253997
1504,000000	58,247614
1503,000000	58,233827
1502,000000	58,214729
1501,000000	58,189531
1500,000000	58,179143
1499,000000	58,174829
1498,000000	58,155478
1497,000000	58,149102
1496,000000	58,144678
1495,000000	58,132202
1494,000000	58,108946
1493,000000	58,090849
1492,000000	58,080969
1491,000000	58,065923
1490,000000	58,051837
1489,000000	58,033330
1488,000000	58,026319
1487,000000	58,017384
1486,000000	57,993610
1485,000000	57,974765
1484,000000	57,964910
1483,000000	57,956506
1482,000000	57,944094
1481,000000	57,927261
1480,000000	57,916180
1479,000000	57,915698
1478,000000	57,907797
1477,000000	57,890797
1476,000000	57,880310
1475,000000	57,864520
1474,000000	57,846215
1473,000000	57,839481
1472,000000	57,827651
1471,000000	57,806479
1470,000000	57,790878
1469,000000	57,772500
1468,000000	57,753751
1467,000000	57,744405
1466,000000	57,735504
1465,000000	57,716043
1464,000000	57,700517
1463,000000	57,701136
1462,000000	57,690924
1461,000000	57,680177
1460,000000	57,667607
1459,000000	57,657865
1458,000000	57,639536
1457,000000	57,623887
1456,000000	57,621031
1455,000000	57,619413
1454,000000	57,603676
1453,000000	57,586406
1452,000000	57,587338
1451,000000	57,575584
1450,000000	57,548209
1449,000000	57,527998
1448,000000	57,513161
1447,000000	57,488230
1446,000000	57,476855
1445,000000	57,461696
1444,000000	57,452920
1443,000000	57,449667
1442,000000	57,436198
1441,000000	57,423516
1440,000000	57,416571
1439,000000	57,403339
1438,000000	57,391165
1437,000000	57,370070
1436,000000	57,346379
1435,000000	57,333190
1434,000000	57,323534
1433,000000	57,301045
1432,000000	57,284871
1431,000000	57,277622
1430,000000	57,266488
1429,000000	57,246046
1428,000000	57,224546
1427,000000	57,217753
1426,000000	57,193361
1425,000000	57,194819
1424,000000	57,203222
1423,000000	57,185119
1422,000000	57,171262
1421,000000	57,146405
1420,000000	57,121743
1419,000000	57,119755
1418,000000	57,114038
1417,000000	57,090913
1416,000000	57,077075
1415,000000	57,061552
1414,000000	57,053343
1413,000000	57,034179
1412,000000	57,018664
1411,000000	57,011697
1410,000000	56,990448
1409,000000	56,967853
1408,000000	56,952311
1407,000000	56,944365
1406,000000	56,933798
1405,000000	56,914219
1404,000000	56,896605
1403,000000	56,885194
1402,000000	56,869694
1401,000000	56,844122
1400,000000	56,818749
1399,000000	56,799084
1398,000000	56,792928
1397,000000	56,771928
1396,000000	56,737065
1395,000000	56,727837
1394,000000	56,711770
1393,000000	56,689717
1392,000000	56,681029
1391,000000	56,664612
1390,000000	56,639142
1389,000000	56,618338
1388,000000	56,606579
1387,000000	56,588644
1386,000000	56,561475
1385,000000	56,552962
1384,000000	56,536035
1383,000000	56,517654
1382,000000	56,505968
1381,000000	56,490275
1380,000000	56,482839
1379,000000	56,476338
1378,000000	56,479974
1377,000000	56,471648
1376,000000	56,462970
1375,000000	56,451227
1374,000000	56,442870
1373,000000	56,447828
1372,000000	56,455654
1371,000000	56,445273
1370,000000	56,442842
1369,000000	56,434885
1368,000000	56,419369
1367,000000	56,417758
1366,000000	56,424188
1365,000000	56,409411
1364,000000	56,398932
1363,000000	56,405744
1362,000000	56,392059
1361,000000	56,378800
1360,000000	56,364618
1359,000000	56,353449
1358,000000	56,344631
1357,000000	56,348059
1356,000000	56,348361
1355,000000	56,330937
1354,000000	56,309101
1353,000000	56,297886
1352,000000	56,290396
1351,000000	56,277029
1350,000000	56,259828
1349,000000	56,251026
1348,000000	56,242158
1347,000000	56,231327
1346,000000	56,215273
1345,000000	56,209383
1344,000000	56,195566
1343,000000	56,182810
1342,000000	56,158689
1341,000000	56,141479
1340,000000	56,120792
1339,000000	56,112509
1338,000000	56,115334
1337,000000	56,108062
1336,000000	56,095377
1335,000000	56,088527
1334,000000	56,075486
1333,000000	56,050062
1332,000000	56,024121
1331,000000	56,010830
1330,000000	56,001994
1329,000000	55,992831
1328,000000	55,977698
1327,000000	55,959344
1326,000000	55,947086
1325,000000	55,938511
1324,000000	55,930766
1323,000000	55,919160
1322,000000	55,906751
1321,000000	55,895380
1320,000000	55,882247
1319,000000	55,872100
1318,000000	55,864243
1317,000000	55,855754
1316,000000	55,842091
1315,000000	55,829238
1314,000000	55,816090
1313,000000	55,797196
1312,000000	55,782325
1311,000000	55,771113
1310,000000	55,762100
1309,000000	55,754018
1308,000000	55,740339
1307,000000	55,717247
1306,000000	55,699052
1305,000000	55,694558
1304,000000	55,688953
1303,000000	55,677618
1302,000000	55,666212
1301,000000	55,655653
1300,000000	55,642288
1299,000000	55,627522
1298,000000	55,611036
1297,000000	55,595526
1296,000000	55,582698
1295,000000	55,577458
1294,000000	55,569657
1293,000000	55,558456
1292,000000	55,546498
1291,000000	55,529859
1290,000000	55,517608
1289,000000	55,505718
1288,000000	55,484501
1287,000000	55,469472
1286,000000	55,460467
1285,000000	55,444515
1284,000000	55,432804
1283,000000	55,421611
1282,000000	55,406525
1281,000000	55,399928
1280,000000	55,394850
1279,000000	55,392120
1278,000000	55,389307
1277,000000	55,374005
1276,000000	55,359459
1275,000000	55,351265
1274,000000	55,341564
1273,000000	55,328450
1272,000000	55,312520
1271,000000	55,294570
1270,000000	55,278229
1269,000000	55,265658
1268,000000	55,258487
1267,000000	55,256217
1266,000000	55,251030
1265,000000	55,241383
1264,000000	55,228824
1263,000000	55,219085
1262,000000	55,210297
1261,000000	55,200085
1260,000000	55,185189
1259,000000	55,165492
1258,000000	55,153469
1257,000000	55,145789
1256,000000	55,132824
1255,000000	55,114709
1254,000000	55,105683
1253,000000	55,101054
1252,000000	55,094717
1251,000000	55,084091
1250,000000	55,073646
1249,000000	55,061885
1248,000000	55,044987
1247,000000	55,027412
1246,000000	55,010048
1245,000000	54,999981
1244,000000	54,992836
1243,000000	54,980186
1242,000000	54,969850
1241,000000	54,963616
1240,000000	54,952188
1239,000000	54,941947
1238,000000	54,934385
1237,000000	54,921689
1236,000000	54,904700
1235,000000	54,892889
1234,000000	54,892332
1233,000000	54,883518
1232,000000	54,866324
1231,000000	54,856234
1230,000000	54,857542
1229,000000	54,854740
1228,000000	54,847079
1227,000000	54,839072
1226,000000	54,828423
1225,000000	54,813182
1224,000000	54,800778
1223,000000	54,788781
1222,000000	54,782122
1221,000000	54,771899
1220,000000	54,757652
1219,000000	54,751405
1218,000000	54,753102
1217,000000	54,745864
1216,000000	54,733286
1215,000000	54,723181
1214,000000	54,714230
1213,000000	54,704809
1212,000000	54,696368
1211,000000	54,689787
1210,000000	54,682991
1209,000000	54,678059
1208,000000	54,673097
1207,000000	54,657190
1206,000000	54,643746
1205,000000	54,640210
1204,000000	54,634529
1203,000000	54,625266
1202,000000	54,618467
1201,000000	54,615339
1200,000000	54,610031
1199,000000	54,595742
1198,000000	54,585606
1197,000000	54,579746
1196,000000	54,575013
1195,000000	54,568744
1194,000000	54,559792
1193,000000	54,550464
1192,000000	54,546819
1191,000000	54,536201
1190,000000	54,527782
1189,000000	54,515545
1188,000000	54,503620
1187,000000	54,501628
1186,000000	54,488830
1185,000000	54,486256
1184,000000	54,484151
1183,000000	54,488366
1182,000000	54,481731
1181,000000	54,470115
1180,000000	54,466084
1179,000000	54,464315
1178,000000	54,448437
1177,000000	54,435979
1176,000000	54,430510
1175,000000	54,425940
1174,000000	54,426553
1173,000000	54,415092
1172,000000	54,409965
1171,000000	54,402556
1170,000000	54,403176
1169,000000	54,398789
1168,000000	54,386765
1167,000000	54,381727
1166,000000	54,390472
1165,000000	54,378220
1164,000000	54,365798
1163,000000	54,361454
1162,000000	54,349282
1161,000000	54,340304
1160,000000	54,337767
1159,000000	54,337512
1158,000000	54,331789
1157,000000	54,334949
1156,000000	54,337015
1155,000000	54,328855
1154,000000	54,327893
1153,000000	54,324186
1152,000000	54,321864
1151,000000	54,319456
1150,000000	54,327439
1149,000000	54,329883
1148,000000	54,323535
1147,000000	54,316603
1146,000000	54,303924
1145,000000	54,298820
1144,000000	54,296847
1143,000000	54,292830
1142,000000	54,290872
1141,000000	54,292236
1140,000000	54,286231
1139,000000	54,293221
1138,000000	54,290177
1137,000000	54,289585
1136,000000	54,291596
1135,000000	54,297789
1134,000000	54,301931
1133,000000	54,303034
1132,000000	54,297524
1131,000000	54,310258
1130,000000	54,298307
1129,000000	54,299994
1128,000000	54,313495
1127,000000	54,311354
1126,000000	54,312573
1125,000000	54,302646
1124,000000	54,295652
1123,000000	54,295628
1122,000000	54,294732
1121,000000	54,283558
1120,000000	54,279316
1119,000000	54,281731
1118,000000	54,287297
1117,000000	54,288800
1116,000000	54,296508
1115,000000	54,290130
1114,000000	54,301626
1113,000000	54,304764
1112,000000	54,304526
1111,000000	54,307716
1110,000000	54,305142
1109,000000	54,313023
1108,000000	54,319637
1107,000000	54,319439
1106,000000	54,325739
1105,000000	54,335913
1104,000000	54,346745
1103,000000	54,355346
1102,000000	54,356277
1101,000000	54,350828
1100,000000	54,352422
1099,000000	54,355734
1098,000000	54,358812
1097,000000	54,371503
1096,000000	54,382856
1095,000000	54,387247
1094,000000	54,384895
1093,000000	54,387253
1092,000000	54,400319
1091,000000	54,395879
1090,000000	54,399964
1089,000000	54,408663
1088,000000	54,424739
1087,000000	54,438878
1086,000000	54,434441
1085,000000	54,438265
1084,000000	54,453495
1083,000000	54,472661
1082,000000	54,484186
1081,000000	54,479050
1080,000000	54,473565
1079,000000	54,480834
1078,000000	54,496749
1077,000000	54,506072
1076,000000	54,521023
1075,000000	54,528132
1074,000000	54,531235
1073,000000	54,537806
1072,000000	54,559511
1071,000000	54,569671
1070,000000	54,574402
1069,000000	54,582805
1068,000000	54,584297
1067,000000	54,599041
1066,000000	54,624042
1065,000000	54,642259
1064,000000	54,653899
1063,000000	54,667500
1062,000000	54,677734
1061,000000	54,680033
1060,000000	54,684406
1059,000000	54,705912
1058,000000	54,730921
1057,000000	54,741551
1056,000000	54,753001
1055,000000	54,775921
1054,000000	54,799249
1053,000000	54,818701
1052,000000	54,831032
1051,000000	54,838677
1050,000000	54,853789
1049,000000	54,875928
1048,000000	54,890777
1047,000000	54,903652
1046,000000	54,917696
1045,000000	54,938127
1044,000000	54,960253
1043,000000	54,974018
1042,000000	54,983315
1041,000000	55,001833
1040,000000	55,016978
1039,000000	55,032487
1038,000000	55,045910
1037,000000	55,068736
1036,000000	55,092947
1035,000000	55,115556
1034,000000	55,141825
1033,000000	55,158286
1032,000000	55,173740
1031,000000	55,192497
1030,000000	55,205276
1029,000000	55,219984
1028,000000	55,250190
1027,000000	55,275440
1026,000000	55,290996
1025,000000	55,307494
1024,000000	55,333050
1023,000000	55,356187
1022,000000	55,375018
1021,000000	55,386683
1020,000000	55,418667
1019,000000	55,448012
1018,000000	55,466109
1017,000000	55,482270
1016,000000	55,507316
1015,000000	55,524011
1014,000000	55,542522
1013,000000	55,569398
1012,000000	55,596345
1011,000000	55,619904
1010,000000	55,653716
1009,000000	55,688203
1008,000000	55,712893
1007,000000	55,735809
1006,000000	55,763897
1005,000000	55,794918
1004,000000	55,813405
1003,000000	55,834429
1002,000000	55,861693
1001,000000	55,886579
1000,000000	55,915629
999,000000	55,940350
998,000000	55,961823
997,000000	55,994737
996,000000	56,028094
995,000000	56,058117
994,000000	56,093759
993,000000	56,128270
992,000000	56,156398
991,000000	56,183168
990,000000	56,204812
989,000000	56,226101
988,000000	56,256947
987,000000	56,292929
986,000000	56,323689
985,000000	56,358439
984,000000	56,397434
983,000000	56,434240
982,000000	56,464348
981,000000	56,492391
980,000000	56,531271
979,000000	56,569717
978,000000	56,604587
977,000000	56,637711
976,000000	56,661605
975,000000	56,692119
974,000000	56,735412
973,000000	56,770308
972,000000	56,792587
971,000000	56,818410
970,000000	56,854319
969,000000	56,883512
968,000000	56,907214
967,000000	56,952643
966,000000	56,999829
965,000000	57,027894
964,000000	57,067019
963,000000	57,110793
962,000000	57,141065
961,000000	57,179089
960,000000	57,219753
959,000000	57,251001
958,000000	57,294546
957,000000	57,340492
956,000000	57,378488
955,000000	57,416292
954,000000	57,449578
953,000000	57,490185
952,000000	57,529469
951,000000	57,568845
950,000000	57,605872
949,000000	57,639940
948,000000	57,678293
947,000000	57,720894
946,000000	57,760317
945,000000	57,805120
944,000000	57,853724
943,000000	57,888884
942,000000	57,921935
941,000000	57,971527
940,000000	58,024249
939,000000	58,056549
938,000000	58,080209
937,000000	58,122943
936,000000	58,170628
935,000000	58,215970
934,000000	58,243888
933,000000	58,287493
932,000000	58,334902
931,000000	58,390414
930,000000	58,433235
929,000000	58,467526
928,000000	58,514486
927,000000	58,564776
926,000000	58,600637
925,000000	58,635884
924,000000	58,687484
923,000000	58,741135
922,000000	58,771061
921,000000	58,800098
920,000000	58,853106
919,000000	58,904354
918,000000	58,954272
917,000000	59,007433
916,000000	59,050530
915,000000	59,090381
914,000000	59,139077
913,000000	59,169189
912,000000	59,206145
911,000000	59,252807
910,000000	59,294796
909,000000	59,328193
908,000000	59,370838
907,000000	59,416941
906,000000	59,458436
905,000000	59,521049
904,000000	59,579379
903,000000	59,598533
902,000000	59,633796
901,000000	59,705917
900,000000	59,749483
899,000000	59,788426
898,000000	59,824462
897,000000	59,876694
896,000000	59,897145
895,000000	59,948237
894,000000	60,021709
893,000000	60,052267
892,000000	60,107425
891,000000	60,140687
890,000000	60,195125
889,000000	60,245709
888,000000	60,301417
887,000000	60,360012
886,000000	60,361118
885,000000	60,454888
884,000000	60,498310
883,000000	60,501277
882,000000	60,537245
881,000000	60,618421
880,000000	60,655012
879,000000	60,719071
878,000000	60,759200
877,000000	60,784674
876,000000	60,832974
875,000000	60,875654
874,000000	60,926041
873,000000	60,973392
872,000000	61,076777
871,000000	61,106176
870,000000	61,128088
869,000000	61,125837
868,000000	61,177905
867,000000	61,289739
866,000000	61,303218
865,000000	61,360842
864,000000	61,401074
863,000000	61,474701
862,000000	61,536558
861,000000	61,530309
860,000000	61,601699
859,000000	61,631563
858,000000	61,671686
857,000000	49,879985
856,000000	65,884269
855,000000	55,125936
854,000000	62,893624
853,000000	88,244296
852,000000	60,388756
851,000000	48,620681
850,000000	63,125867
849,000000	72,149784
848,000000	65,425416
847,000000	55,442062
846,000000	73,329670
845,000000	54,174220
844,000000	59,807582
843,000000	53,526012
842,000000	67,696842
841,000000	88,597976
840,000000	59,609749
839,000000	57,577060
838,000000	76,317136
837,000000	62,726748
836,000000	62,584470
835,000000	62,650074
834,000000	62,548979
833,000000	62,882278
832,000000	63,032139
831,000000	63,270443
830,000000	63,085140
829,000000	63,477306
828,000000	63,113622
827,000000	62,995959
826,000000	63,088569
825,000000	62,975477
824,000000	63,329107
823,000000	63,405226
822,000000	63,083575
821,000000	63,024126
820,000000	63,300880
819,000000	63,446213
818,000000	63,560214
817,000000	63,475302
816,000000	63,590892
815,000000	63,770304
814,000000	63,682128
813,000000	63,635445
812,000000	63,695473
811,000000	64,008915
810,000000	63,927250
809,000000	63,686826
808,000000	64,003622
807,000000	64,052455
806,000000	63,959798
805,000000	64,024869
804,000000	64,229643
803,000000	64,232964
802,000000	64,367411
801,000000	64,297575
800,000000	64,188348
799,000000	64,407919
798,000000	64,459312
797,000000	64,333196
796,000000	64,506119
795,000000	64,510505
794,000000	64,370793
793,000000	64,491098
792,000000	64,446411
791,000000	64,760612
790,000000	64,751647
789,000000	64,709876
788,000000	64,738739
787,000000	64,650420
786,000000	64,750721
785,000000	64,863545
784,000000	64,951065
783,000000	65,064625
782,000000	64,867424
781,000000	64,932873
780,000000	65,035910
779,000000	65,156168
778,000000	65,086869
777,000000	65,279245
776,000000	65,276761
775,000000	65,009418
774,000000	65,193882
773,000000	65,235832
772,000000	65,406577
771,000000	65,448364
770,000000	65,388659
769,000000	65,350763
768,000000	65,529599
767,000000	65,441711
766,000000	65,565551
765,000000	65,658838
764,000000	65,748614
763,000000	65,707211
762,000000	65,834829
761,000000	65,850993
760,000000	65,703280
759,000000	65,813795
758,000000	65,852858
757,000000	65,995613
756,000000	65,979692
755,000000	65,959783
754,000000	65,912167
753,000000	66,099732
752,000000	66,149509
751,000000	66,115336
750,000000	66,191023
749,000000	66,121137
748,000000	66,176666
747,000000	66,294759
746,000000	66,248123
745,000000	66,257178
744,000000	66,380405
743,000000	66,427648
742,000000	66,408528
741,000000	66,430889
740,000000	66,517975
739,000000	66,469664
738,000000	66,478842
737,000000	66,645907
736,000000	66,663262
735,000000	66,559838
734,000000	66,628009
733,000000	66,687612
732,000000	66,820598
731,000000	66,892397
730,000000	66,806246
729,000000	66,816816
728,000000	66,816500
727,000000	66,876161
726,000000	66,978300
725,000000	67,037619
724,000000	67,034462
723,000000	67,023066
722,000000	67,060204
721,000000	67,095479
720,000000	67,131249
719,000000	67,160993
718,000000	67,195252
717,000000	67,183539
716,000000	67,259261
715,000000	67,349704
714,000000	67,338241
713,000000	67,349139
712,000000	67,346881
711,000000	67,393799
710,000000	67,416669
709,000000	67,478139
708,000000	67,448592
707,000000	67,479914
706,000000	67,604456
705,000000	67,640316
704,000000	67,600204
703,000000	67,612969
702,000000	67,627849
701,000000	67,653671
700,000000	67,745784
699,000000	67,779088
698,000000	67,731983
697,000000	67,726464
696,000000	67,786654
695,000000	67,856710
694,000000	67,915950
693,000000	67,971929
692,000000	68,042453
691,000000	68,062780
690,000000	68,049355
689,000000	68,003346
688,000000	68,067794
687,000000	68,061857
686,000000	68,080388
685,000000	68,145544
684,000000	68,179868
683,000000	68,224997
682,000000	68,231569
681,000000	68,264424
680,000000	68,228559
679,000000	68,209334
678,000000	68,312079
677,000000	68,378319
676,000000	68,360074
675,000000	68,394597
674,000000	68,418281
673,000000	68,407725
672,000000	68,456920
671,000000	68,530326
670,000000	68,569324
669,000000	68,523184
668,000000	68,491715
667,000000	68,564985
666,000000	68,623271
665,000000	68,628574
664,000000	68,650052
663,000000	68,670836
662,000000	68,681849
661,000000	68,698379
660,000000	68,712998
659,000000	68,738276
658,000000	68,758094
657,000000	68,788523
656,000000	68,793636
655,000000	68,851366
654,000000	68,892924
653,000000	68,861275
652,000000	68,844788
651,000000	68,845541
650,000000	68,935559
649,000000	68,976988
648,000000	68,950803
647,000000	68,964919
646,000000	68,959152
645,000000	68,996992
644,000000	69,024180
643,000000	69,046324
642,000000	69,026181
641,000000	69,036115
640,000000	69,038228
639,000000	69,109527
638,000000	69,172251
637,000000	69,171401
636,000000	69,139846
635,000000	69,087271
634,000000	69,114948
633,000000	69,150056
632,000000	69,175950
631,000000	69,158269
630,000000	69,157210
629,000000	69,208926
628,000000	69,247049
627,000000	69,210370
626,000000	69,190133
625,000000	69,245079
624,000000	69,232925
623,000000	69,260014
622,000000	69,280479
621,000000	69,282608
620,000000	69,242486
619,000000	69,275189
618,000000	69,254702
617,000000	69,250063
616,000000	69,268577
615,000000	69,243796
614,000000	69,241669
613,000000	69,258339
612,000000	69,299629
611,000000	69,241636
610,000000	69,254168
609,000000	69,271377
608,000000	69,252280
607,000000	69,220729
606,000000	69,239895
605,000000	69,218984
604,000000	69,246361
603,000000	69,248267
602,000000	69,275550
601,000000	69,279731
600,000000	69,219327
599,000000	69,213891
598,000000	69,199361
597,000000	69,205370
596,000000	69,217950
595,000000	69,125981
594,000000	69,076844
593,000000	69,110355
592,000000	69,136975
591,000000	69,089600
590,000000	69,093770
589,000000	69,106249
588,000000	69,053605
587,000000	69,012774
586,000000	68,979519
585,000000	68,971301
584,000000	68,956665
583,000000	68,891111
582,000000	68,872455
581,000000	68,868519
580,000000	68,804279
579,000000	68,792935
578,000000	68,757089
577,000000	68,732325
576,000000	68,683263
575,000000	68,652000
574,000000	68,614874
573,000000	68,518644
572,000000	68,521658
571,000000	68,502427
570,000000	68,502202
569,000000	68,450044
568,000000	68,355880
567,000000	68,280266
566,000000	68,284930
565,000000	68,250677
564,000000	68,207313
563,000000	68,143601
562,000000	68,042161
561,000000	68,009934
560,000000	67,976953
559,000000	67,952214
558,000000	67,876288
557,000000	67,814029
556,000000	67,752047
555,000000	67,685138
554,000000	67,583582
553,000000	67,568359
552,000000	67,461349
551,000000	67,417924
550,000000	67,377745
549,000000	67,319820
548,000000	67,291704
547,000000	67,153088
546,000000	67,050448
545,000000	66,968557
544,000000	66,869762
543,000000	66,762819
542,000000	66,713466
541,000000	66,612258
540,000000	66,544401
539,000000	66,502149
538,000000	66,395629
537,000000	66,307607
536,000000	66,237919
535,000000	66,110461
534,000000	66,044579
533,000000	65,952330
532,000000	65,840078
531,000000	65,662023
530,000000	65,592664
529,000000	65,553746
528,000000	65,387657
527,000000	65,276459
526,000000	65,151279
525,000000	65,022288
524,000000	64,966165
523,000000	64,831233
522,000000	64,709819
521,000000	64,586276
520,000000	64,482616
519,000000	64,366504
518,000000	64,238381
517,000000	64,105043
516,000000	63,925961
515,000000	63,902161
514,000000	63,730758
513,000000	63,580238
512,000000	63,496791
511,000000	63,359096
510,000000	63,216863
509,000000	63,068136
508,000000	62,840057
507,000000	62,794892
506,000000	62,636125
505,000000	62,525790
504,000000	62,346544
503,000000	62,219216
502,000000	62,026887
501,000000	61,992501
500,000000	61,768047
499,000000	61,616880
498,000000	61,475949
497,000000	61,308825
496,000000	61,148642
495,000000	60,978322
494,000000	60,807138
493,000000	60,645222
492,000000	60,569873
491,000000	60,405352
490,000000	60,190272
489,000000	60,006754
488,000000	59,828503
487,000000	59,701688
486,000000	59,563789
485,000000	59,369053
484,000000	59,234811
483,000000	59,023223
482,000000	58,851520
481,000000	58,688324
480,000000	58,534169
479,000000	58,385628
478,000000	58,115336
477,000000	58,011225
476,000000	57,810011
475,000000	57,627939
474,000000	57,432667
473,000000	57,274550
472,000000	57,087283
471,000000	56,920848
470,000000	56,720278
469,000000	56,497147
468,000000	56,387417
467,000000	56,236411
466,000000	56,032629
465,000000	55,808897
464,000000	55,686321
463,000000	55,460882
462,000000	55,226674
461,000000	55,021951
460,000000	54,909433
459,000000	54,720247
458,000000	54,531146
457,000000	54,305230
456,000000	54,138889
455,000000	54,024854
454,000000	53,834638
453,000000	53,607990
452,000000	53,496213
451,000000	53,208283
450,000000	53,011398
449,000000	52,818835
448,000000	52,649823
447,000000	52,421632
446,000000	52,295914
445,000000	52,074371
444,000000	51,919226
443,000000	51,774850
442,000000	51,620518
441,000000	51,327281
440,000000	51,085784
439,000000	50,939487
438,000000	50,739982
437,000000	50,557047
436,000000	50,410184
435,000000	50,230975
434,000000	50,065547
433,000000	49,888719
432,000000	49,691225
431,000000	49,483014
430,000000	49,275548
429,000000	49,088891
428,000000	48,961098
427,000000	48,749065
426,000000	48,561129
425,000000	48,420329
424,000000	48,212740
423,000000	48,080830
422,000000	47,905066
421,000000	47,748106
420,000000	47,474369
419,000000	47,339915
418,000000	47,250109
417,000000	47,080614
416,000000	46,966774
415,000000	46,783895
414,000000	46,543459
413,000000	46,410707
412,000000	46,228479
411,000000	46,104136
410,000000	45,975112
409,000000	45,802948
408,000000	45,719203
407,000000	45,526908
406,000000	45,370828
405,000000	45,225696
404,000000	45,098284
403,000000	45,021620
402,000000	44,894607
401,000000	44,634168
400,000000	44,530101
399,000000	44,511564
398,000000	44,290414
397,000000	44,104666
396,000000	44,074086
395,000000	43,976619
394,000000	43,882315
393,000000	43,764617
392,000000	43,623300
391,000000	43,477311
390,000000	43,418766
389,000000	43,357287
388,000000	43,221970
387,000000	43,146158
386,000000	43,091661
385,000000	43,005471
384,000000	42,918664
383,000000	42,752529
382,000000	42,664974
381,000000	42,663673
380,000000	42,593806
379,000000	42,508022
378,000000	42,409547
377,000000	42,340341
376,000000	42,244579
375,000000	42,040378
374,000000	41,771011
373,000000	41,754041
372,000000	41,932377
371,000000	41,787109
370,000000	41,575264
369,000000	41,640481
368,000000	41,653600
367,000000	41,476401
366,000000	41,535165
365,000000	41,498836
364,000000	41,267112
363,000000	41,111722
362,000000	40,820689
361,000000	40,742274
360,000000	40,905046
359,000000	41,060265
358,000000	40,808500
357,000000	40,512855
356,000000	40,558427
355,000000	40,612050
354,000000	40,197233
353,000000	40,146042
352,000000	40,368940
351,000000	40,100794
350,000000	39,913061
349,000000	39,911622
348,000000	39,683727
347,000000	39,568519
346,000000	39,356100
345,000000	38,997287
344,000000	38,570902
343,000000	38,512064
342,000000	38,167095
341,000000	37,936908
340,000000	37,854535
339,000000	37,426546
338,000000	37,148354
337,000000	37,088378
336,000000	36,681363
335,000000	36,016202
334,000000	35,576082
333,000000	35,117276
332,000000	34,773113
331,000000	34,461963
330,000000	34,367676
329,000000	33,907023
328,000000	33,303042
327,000000	32,476189
326,000000	31,498223
325,000000	31,350044
324,000000	30,899185
323,000000	29,946886
322,000000	29,087597
321,000000	28,301667
320,000000	28,156565
319,000000	27,534374
318,000000	26,713349
317,000000	26,395528
316,000000	25,512395
315,000000	24,538846
314,000000	23,791681
313,000000	23,029468
312,000000	22,376545
311,000000	21,682006
310,000000	20,924493
309,000000	20,167886
308,000000	19,453840
307,000000	18,726812
306,000000	17,884665
305,000000	17,311634
304,000000	16,737326
303,000000	15,953010
302,000000	15,336954
301,000000	14,678141
300,000000	14,047725
299,000000	13,401927
298,000000	12,771224
297,000000	12,274530
296,000000	11,724613
295,000000	11,221650
294,000000	10,703216
293,000000	10,161618
292,000000	9,644080
291,000000	9,190564
290,000000	8,778546
289,000000	8,321302
288,000000	7,976621
287,000000	7,580247
286,000000	7,172801
285,000000	6,821654
284,000000	6,531601
283,000000	6,175737
282,000000	5,858243
281,000000	5,583939
280,000000	5,277155
279,000000	5,025839
278,000000	4,741370
277,000000	4,548799
276,000000	4,323342
275,000000	4,109597
274,000000	3,942384
273,000000	3,741964
272,000000	3,589034
271,000000	3,410519
270,000000	3,219166
269,000000	3,108409
268,000000	2,983820
267,000000	2,863729
266,000000	2,750605
265,000000	2,623671
264,000000	2,508575
263,000000	2,389460
262,000000	2,321114
261,000000	2,242788
260,000000	2,151100
259,000000	2,093980
258,000000	1,998140
257,000000	1,971775
256,000000	1,917347
255,000000	1,847302
254,000000	1,774248
253,000000	1,735720
252,000000	1,680968
251,000000	1,641547
250,000000	1,611494
