PE UV       SUBTECH     SPECTRUM    ASCII       PEDS        4.00        
   -1
WO3_cuarzo_20260507_S2_10sccm_A.ASC
26/05/13
11:37:39.00
26/05/13
11:37:39.00
Edgar Rojas

250,000000
1
Lambda 1050
1050L1511233
PerkinElmer UV WinLab 6.3.2.0749 / 2.02.05 Lambda 900 UV/VIS/NIR, Aug  7 2015 09:38:08

0
0
3350/servo 860,8/2
0
0
UV/VIS
1
1
1
DoubleDePol,CommonBeamDepol,RBeamAtt,SBeamAtt,60mm sphere, WB InGaAs Detector
0
0
0
0
Program
Program
3350/servo 860,8/2
3350/0,2 840/0,2
3350/0,2 840/0,2
0
8.10
 
 
 
0
 
860,8
319,2
840
Front
100
on
S:100 R:100
0
0
0
0
 
0
 
 
 
0
 
 
0
0
0
0
0
 
 
 
 
0
0


0
0
#HDR
-1
-1
#GR
nm
%T
1.0
0.0
2000,000000
-1,000000
1751
8
112,081233
7,047665
#DATA
2000,000000	91,265012
1999,000000	91,257816
1998,000000	91,260144
1997,000000	91,239569
1996,000000	91,226594
1995,000000	91,227671
1994,000000	91,213402
1993,000000	91,211820
1992,000000	91,205500
1991,000000	91,228408
1990,000000	91,238834
1989,000000	91,227803
1988,000000	91,212308
1987,000000	91,214070
1986,000000	91,208278
1985,000000	91,192703
1984,000000	91,189050
1983,000000	91,211144
1982,000000	91,218324
1981,000000	91,198849
1980,000000	91,202164
1979,000000	91,195814
1978,000000	91,175987
1977,000000	91,183998
1976,000000	91,174313
1975,000000	91,172089
1974,000000	91,161945
1973,000000	91,180004
1972,000000	91,178234
1971,000000	91,172000
1970,000000	91,184457
1969,000000	91,180547
1968,000000	91,178962
1967,000000	91,169499
1966,000000	91,156934
1965,000000	91,142824
1964,000000	91,145334
1963,000000	91,139242
1962,000000	91,132263
1961,000000	91,134744
1960,000000	91,138525
1959,000000	91,128937
1958,000000	91,138371
1957,000000	91,139311
1956,000000	91,124109
1955,000000	91,128293
1954,000000	91,122489
1953,000000	91,097180
1952,000000	91,113683
1951,000000	91,125231
1950,000000	91,140035
1949,000000	91,134968
1948,000000	91,119410
1947,000000	91,106538
1946,000000	91,112788
1945,000000	91,097315
1944,000000	91,083680
1943,000000	91,096959
1942,000000	91,098847
1941,000000	91,084104
1940,000000	91,082428
1939,000000	91,086870
1938,000000	91,094408
1937,000000	91,099958
1936,000000	91,088953
1935,000000	91,068805
1934,000000	91,073386
1933,000000	91,088468
1932,000000	91,088822
1931,000000	91,076352
1930,000000	91,064968
1929,000000	91,064909
1928,000000	91,051015
1927,000000	91,048655
1926,000000	91,037890
1925,000000	91,036921
1924,000000	91,043483
1923,000000	91,048770
1922,000000	91,044977
1921,000000	91,023601
1920,000000	90,999420
1919,000000	91,012939
1918,000000	91,037315
1917,000000	91,041930
1916,000000	91,030185
1915,000000	91,015421
1914,000000	90,994744
1913,000000	90,997073
1912,000000	90,995334
1911,000000	90,979618
1910,000000	90,968805
1909,000000	90,971900
1908,000000	90,956469
1907,000000	90,951529
1906,000000	90,956378
1905,000000	90,953579
1904,000000	90,949409
1903,000000	90,936200
1902,000000	90,933116
1901,000000	90,950163
1900,000000	90,956673
1899,000000	90,941379
1898,000000	90,936825
1897,000000	90,931925
1896,000000	90,921975
1895,000000	90,932225
1894,000000	90,950386
1893,000000	90,970107
1892,000000	90,971491
1891,000000	90,953388
1890,000000	90,948125
1889,000000	90,944751
1888,000000	90,941724
1887,000000	90,931082
1886,000000	90,922674
1885,000000	90,928105
1884,000000	90,944046
1883,000000	90,941230
1882,000000	90,922900
1881,000000	90,912061
1880,000000	90,907848
1879,000000	90,903008
1878,000000	90,897816
1877,000000	90,898092
1876,000000	90,903097
1875,000000	90,897668
1874,000000	90,884855
1873,000000	90,866432
1872,000000	90,862501
1871,000000	90,854485
1870,000000	90,843090
1869,000000	90,842945
1868,000000	90,836684
1867,000000	90,832904
1866,000000	90,842672
1865,000000	90,847969
1864,000000	90,839304
1863,000000	90,831651
1862,000000	90,827951
1861,000000	90,831075
1860,000000	90,838181
1859,000000	90,829447
1858,000000	90,822865
1857,000000	90,825577
1856,000000	90,825424
1855,000000	90,831237
1854,000000	90,835054
1853,000000	90,827657
1852,000000	90,807564
1851,000000	90,783287
1850,000000	90,771775
1849,000000	90,766043
1848,000000	90,753805
1847,000000	90,756697
1846,000000	90,766446
1845,000000	90,768570
1844,000000	90,762785
1843,000000	90,745317
1842,000000	90,728229
1841,000000	90,716183
1840,000000	90,708849
1839,000000	90,706863
1838,000000	90,706575
1837,000000	90,702399
1836,000000	90,707145
1835,000000	90,717605
1834,000000	90,716304
1833,000000	90,708019
1832,000000	90,700131
1831,000000	90,695689
1830,000000	90,711786
1829,000000	90,722129
1828,000000	90,715121
1827,000000	90,714104
1826,000000	90,711624
1825,000000	90,708486
1824,000000	90,711491
1823,000000	90,707123
1822,000000	90,687572
1821,000000	90,677655
1820,000000	90,672048
1819,000000	90,662139
1818,000000	90,667010
1817,000000	90,683095
1816,000000	90,689951
1815,000000	90,692288
1814,000000	90,683577
1813,000000	90,668328
1812,000000	90,673023
1811,000000	90,677200
1810,000000	90,664254
1809,000000	90,651162
1808,000000	90,648086
1807,000000	90,652539
1806,000000	90,652118
1805,000000	90,648486
1804,000000	90,645365
1803,000000	90,651069
1802,000000	90,650681
1801,000000	90,637830
1800,000000	90,629615
1799,000000	90,615353
1798,000000	90,606571
1797,000000	90,609863
1796,000000	90,613153
1795,000000	90,603422
1794,000000	90,610953
1793,000000	90,617594
1792,000000	90,618796
1791,000000	90,615388
1790,000000	90,623852
1789,000000	90,627991
1788,000000	90,627050
1787,000000	90,619398
1786,000000	90,605955
1785,000000	90,605034
1784,000000	90,608454
1783,000000	90,599869
1782,000000	90,600677
1781,000000	90,605630
1780,000000	90,587058
1779,000000	90,574863
1778,000000	90,572871
1777,000000	90,579223
1776,000000	90,568656
1775,000000	90,545424
1774,000000	90,525588
1773,000000	90,534964
1772,000000	90,541122
1771,000000	90,529073
1770,000000	90,523647
1769,000000	90,522071
1768,000000	90,514549
1767,000000	90,520111
1766,000000	90,523297
1765,000000	90,517445
1764,000000	90,507765
1763,000000	90,508769
1762,000000	90,525895
1761,000000	90,520287
1760,000000	90,515870
1759,000000	90,503743
1758,000000	90,507037
1757,000000	90,483324
1756,000000	90,467160
1755,000000	90,462314
1754,000000	90,466343
1753,000000	90,454829
1752,000000	90,442050
1751,000000	90,457153
1750,000000	90,451504
1749,000000	90,426930
1748,000000	90,414381
1747,000000	90,425642
1746,000000	90,411010
1745,000000	90,423385
1744,000000	90,429319
1743,000000	90,418681
1742,000000	90,406207
1741,000000	90,404844
1740,000000	90,392784
1739,000000	90,406369
1738,000000	90,397335
1737,000000	90,404239
1736,000000	90,399574
1735,000000	90,401512
1734,000000	90,394748
1733,000000	90,380193
1732,000000	90,387280
1731,000000	90,384126
1730,000000	90,378544
1729,000000	90,361411
1728,000000	90,327958
1727,000000	90,350844
1726,000000	90,376216
1725,000000	90,363684
1724,000000	90,351039
1723,000000	90,346694
1722,000000	90,336760
1721,000000	90,331085
1720,000000	90,329788
1719,000000	90,319964
1718,000000	90,318400
1717,000000	90,311487
1716,000000	90,306134
1715,000000	90,296867
1714,000000	90,309491
1713,000000	90,285600
1712,000000	90,267898
1711,000000	90,272670
1710,000000	90,276537
1709,000000	90,273178
1708,000000	90,277855
1707,000000	90,264001
1706,000000	90,241532
1705,000000	90,230845
1704,000000	90,227949
1703,000000	90,224335
1702,000000	90,221127
1701,000000	90,224447
1700,000000	90,224623
1699,000000	90,216560
1698,000000	90,223663
1697,000000	90,239023
1696,000000	90,245733
1695,000000	90,240298
1694,000000	90,220586
1693,000000	90,211296
1692,000000	90,208969
1691,000000	90,228984
1690,000000	90,231515
1689,000000	90,198121
1688,000000	90,169689
1687,000000	90,174859
1686,000000	90,175445
1685,000000	90,170941
1684,000000	90,152287
1683,000000	90,127251
1682,000000	90,126416
1681,000000	90,140090
1680,000000	90,139162
1679,000000	90,139014
1678,000000	90,129313
1677,000000	90,133867
1676,000000	90,126971
1675,000000	90,126700
1674,000000	90,123492
1673,000000	90,113112
1672,000000	90,092941
1671,000000	90,089225
1670,000000	90,092643
1669,000000	90,096144
1668,000000	90,085369
1667,000000	90,070609
1666,000000	90,069715
1665,000000	90,066286
1664,000000	90,048412
1663,000000	90,059803
1662,000000	90,044374
1661,000000	90,057761
1660,000000	90,064515
1659,000000	90,065919
1658,000000	90,059136
1657,000000	90,047515
1656,000000	90,042266
1655,000000	90,022212
1654,000000	89,997479
1653,000000	89,988015
1652,000000	89,982260
1651,000000	89,979258
1650,000000	89,977692
1649,000000	89,986896
1648,000000	89,995523
1647,000000	89,977890
1646,000000	89,970944
1645,000000	89,956919
1644,000000	89,953846
1643,000000	89,950657
1642,000000	89,941157
1641,000000	89,920001
1640,000000	89,918778
1639,000000	89,925773
1638,000000	89,920101
1637,000000	89,915445
1636,000000	89,910781
1635,000000	89,915347
1634,000000	89,906667
1633,000000	89,900227
1632,000000	89,899547
1631,000000	89,904020
1630,000000	89,893007
1629,000000	89,869688
1628,000000	89,866456
1627,000000	89,861868
1626,000000	89,859493
1625,000000	89,860232
1624,000000	89,859389
1623,000000	89,861422
1622,000000	89,861789
1621,000000	89,862420
1620,000000	89,858122
1619,000000	89,847043
1618,000000	89,828886
1617,000000	89,819750
1616,000000	89,812217
1615,000000	89,810302
1614,000000	89,806225
1613,000000	89,793710
1612,000000	89,779157
1611,000000	89,776407
1610,000000	89,781438
1609,000000	89,798362
1608,000000	89,807442
1607,000000	89,792190
1606,000000	89,785383
1605,000000	89,776014
1604,000000	89,766083
1603,000000	89,765002
1602,000000	89,762712
1601,000000	89,761702
1600,000000	89,754365
1599,000000	89,748971
1598,000000	89,742237
1597,000000	89,735946
1596,000000	89,732384
1595,000000	89,716057
1594,000000	89,716501
1593,000000	89,715723
1592,000000	89,704655
1591,000000	89,695649
1590,000000	89,698344
1589,000000	89,702000
1588,000000	89,696146
1587,000000	89,684766
1586,000000	89,673647
1585,000000	89,664977
1584,000000	89,666384
1583,000000	89,665399
1582,000000	89,662677
1581,000000	89,662159
1580,000000	89,652052
1579,000000	89,636565
1578,000000	89,628385
1577,000000	89,631096
1576,000000	89,638461
1575,000000	89,631101
1574,000000	89,623287
1573,000000	89,616892
1572,000000	89,599074
1571,000000	89,585732
1570,000000	89,587422
1569,000000	89,589433
1568,000000	89,581266
1567,000000	89,573732
1566,000000	89,572662
1565,000000	89,566916
1564,000000	89,554759
1563,000000	89,540137
1562,000000	89,532537
1561,000000	89,530878
1560,000000	89,523602
1559,000000	89,529760
1558,000000	89,532131
1557,000000	89,515331
1556,000000	89,501799
1555,000000	89,496500
1554,000000	89,490267
1553,000000	89,489972
1552,000000	89,485048
1551,000000	89,475475
1550,000000	89,476142
1549,000000	89,464788
1548,000000	89,457188
1547,000000	89,470139
1546,000000	89,473215
1545,000000	89,466206
1544,000000	89,461485
1543,000000	89,459914
1542,000000	89,451948
1541,000000	89,439094
1540,000000	89,433111
1539,000000	89,425015
1538,000000	89,410681
1537,000000	89,405443
1536,000000	89,400320
1535,000000	89,388244
1534,000000	89,380763
1533,000000	89,381136
1532,000000	89,372632
1531,000000	89,364935
1530,000000	89,360762
1529,000000	89,360996
1528,000000	89,361650
1527,000000	89,364815
1526,000000	89,358763
1525,000000	89,353423
1524,000000	89,343552
1523,000000	89,325585
1522,000000	89,316904
1521,000000	89,320977
1520,000000	89,310201
1519,000000	89,293024
1518,000000	89,277841
1517,000000	89,272016
1516,000000	89,267534
1515,000000	89,274045
1514,000000	89,271864
1513,000000	89,258552
1512,000000	89,260905
1511,000000	89,259526
1510,000000	89,254831
1509,000000	89,257180
1508,000000	89,262302
1507,000000	89,264505
1506,000000	89,247770
1505,000000	89,243984
1504,000000	89,248247
1503,000000	89,241136
1502,000000	89,227414
1501,000000	89,209091
1500,000000	89,206811
1499,000000	89,207652
1498,000000	89,192638
1497,000000	89,179868
1496,000000	89,166698
1495,000000	89,165993
1494,000000	89,153440
1493,000000	89,152726
1492,000000	89,147227
1491,000000	89,135984
1490,000000	89,133846
1489,000000	89,117222
1488,000000	89,125361
1487,000000	89,123519
1486,000000	89,094719
1485,000000	89,086074
1484,000000	89,086839
1483,000000	89,087466
1482,000000	89,093724
1481,000000	89,090366
1480,000000	89,083495
1479,000000	89,088551
1478,000000	89,089496
1477,000000	89,078748
1476,000000	89,067836
1475,000000	89,049825
1474,000000	89,045810
1473,000000	89,040977
1472,000000	89,039879
1471,000000	89,024767
1470,000000	89,000543
1469,000000	88,992168
1468,000000	88,970696
1467,000000	88,964327
1466,000000	88,974850
1465,000000	88,968120
1464,000000	88,950662
1463,000000	88,954161
1462,000000	88,970583
1461,000000	88,956606
1460,000000	88,928704
1459,000000	88,926786
1458,000000	88,919152
1457,000000	88,910521
1456,000000	88,908440
1455,000000	88,913751
1454,000000	88,913238
1453,000000	88,908412
1452,000000	88,906485
1451,000000	88,898179
1450,000000	88,898440
1449,000000	88,884343
1448,000000	88,870503
1447,000000	88,855293
1446,000000	88,849073
1445,000000	88,845448
1444,000000	88,852155
1443,000000	88,859961
1442,000000	88,845313
1441,000000	88,840563
1440,000000	88,832303
1439,000000	88,825778
1438,000000	88,829248
1437,000000	88,823682
1436,000000	88,807597
1435,000000	88,795435
1434,000000	88,792687
1433,000000	88,770692
1432,000000	88,761503
1431,000000	88,765949
1430,000000	88,757229
1429,000000	88,744364
1428,000000	88,730504
1427,000000	88,724825
1426,000000	88,687838
1425,000000	88,706502
1424,000000	88,736495
1423,000000	88,714367
1422,000000	88,711932
1421,000000	88,687440
1420,000000	88,664303
1419,000000	88,684105
1418,000000	88,679409
1417,000000	88,651365
1416,000000	88,636555
1415,000000	88,637137
1414,000000	88,626472
1413,000000	88,609083
1412,000000	88,604500
1411,000000	88,609948
1410,000000	88,583468
1409,000000	88,571716
1408,000000	88,567152
1407,000000	88,561010
1406,000000	88,539863
1405,000000	88,510547
1404,000000	88,505414
1403,000000	88,501611
1402,000000	88,511298
1401,000000	88,498478
1400,000000	88,469493
1399,000000	88,444283
1398,000000	88,436482
1397,000000	88,417627
1396,000000	88,381368
1395,000000	88,368371
1394,000000	88,366083
1393,000000	88,349055
1392,000000	88,353059
1391,000000	88,340025
1390,000000	88,321265
1389,000000	88,321398
1388,000000	88,317305
1387,000000	88,285798
1386,000000	88,267975
1385,000000	88,281465
1384,000000	88,282726
1383,000000	88,277455
1382,000000	88,264108
1381,000000	88,249080
1380,000000	88,225320
1379,000000	88,234130
1378,000000	88,261358
1377,000000	88,258610
1376,000000	88,259337
1375,000000	88,267678
1374,000000	88,266735
1373,000000	88,272899
1372,000000	88,282399
1371,000000	88,270821
1370,000000	88,266044
1369,000000	88,286906
1368,000000	88,288765
1367,000000	88,290546
1366,000000	88,300006
1365,000000	88,295187
1364,000000	88,275632
1363,000000	88,281574
1362,000000	88,270354
1361,000000	88,256311
1360,000000	88,257602
1359,000000	88,250077
1358,000000	88,238003
1357,000000	88,236123
1356,000000	88,234910
1355,000000	88,225396
1354,000000	88,215390
1353,000000	88,219824
1352,000000	88,217554
1351,000000	88,215695
1350,000000	88,216613
1349,000000	88,209846
1348,000000	88,197098
1347,000000	88,196526
1346,000000	88,175571
1345,000000	88,167339
1344,000000	88,158453
1343,000000	88,155230
1342,000000	88,139824
1341,000000	88,134763
1340,000000	88,137727
1339,000000	88,154714
1338,000000	88,166258
1337,000000	88,159214
1336,000000	88,153749
1335,000000	88,145343
1334,000000	88,141303
1333,000000	88,132494
1332,000000	88,122174
1331,000000	88,119317
1330,000000	88,111296
1329,000000	88,104858
1328,000000	88,090678
1327,000000	88,082212
1326,000000	88,076509
1325,000000	88,063330
1324,000000	88,055710
1323,000000	88,053392
1322,000000	88,045114
1321,000000	88,041053
1320,000000	88,041288
1319,000000	88,047870
1318,000000	88,057838
1317,000000	88,054703
1316,000000	88,033059
1315,000000	88,024524
1314,000000	88,014650
1313,000000	88,006907
1312,000000	87,997019
1311,000000	87,985694
1310,000000	87,977491
1309,000000	87,967536
1308,000000	87,954021
1307,000000	87,931519
1306,000000	87,913933
1305,000000	87,927342
1304,000000	87,930824
1303,000000	87,918430
1302,000000	87,915122
1301,000000	87,907699
1300,000000	87,887792
1299,000000	87,877335
1298,000000	87,885469
1297,000000	87,886849
1296,000000	87,875332
1295,000000	87,868232
1294,000000	87,855525
1293,000000	87,853395
1292,000000	87,858738
1291,000000	87,850019
1290,000000	87,843549
1289,000000	87,840356
1288,000000	87,823199
1287,000000	87,808679
1286,000000	87,800439
1285,000000	87,780065
1284,000000	87,766724
1283,000000	87,760050
1282,000000	87,749452
1281,000000	87,743565
1280,000000	87,739840
1279,000000	87,736635
1278,000000	87,740664
1277,000000	87,733557
1276,000000	87,716570
1275,000000	87,697896
1274,000000	87,685598
1273,000000	87,681719
1272,000000	87,670448
1271,000000	87,659334
1270,000000	87,652871
1269,000000	87,640356
1268,000000	87,624139
1267,000000	87,622772
1266,000000	87,628005
1265,000000	87,627663
1264,000000	87,625842
1263,000000	87,619062
1262,000000	87,603992
1261,000000	87,591518
1260,000000	87,582792
1259,000000	87,574922
1258,000000	87,560902
1257,000000	87,550334
1256,000000	87,546098
1255,000000	87,538377
1254,000000	87,535806
1253,000000	87,527548
1252,000000	87,521527
1251,000000	87,517708
1250,000000	87,514485
1249,000000	87,503931
1248,000000	87,487117
1247,000000	87,474001
1246,000000	87,457146
1245,000000	87,449636
1244,000000	87,444919
1243,000000	87,433754
1242,000000	87,421736
1241,000000	87,415330
1240,000000	87,416908
1239,000000	87,423402
1238,000000	87,419255
1237,000000	87,398847
1236,000000	87,370368
1235,000000	87,356043
1234,000000	87,360790
1233,000000	87,361750
1232,000000	87,347329
1231,000000	87,335530
1230,000000	87,344551
1229,000000	87,341076
1228,000000	87,325192
1227,000000	87,311825
1226,000000	87,302121
1225,000000	87,288460
1224,000000	87,271576
1223,000000	87,266831
1222,000000	87,262927
1221,000000	87,247275
1220,000000	87,234905
1219,000000	87,239933
1218,000000	87,239376
1217,000000	87,226335
1216,000000	87,217690
1215,000000	87,214551
1214,000000	87,210891
1213,000000	87,201811
1212,000000	87,188590
1211,000000	87,177801
1210,000000	87,169052
1209,000000	87,168075
1208,000000	87,173097
1207,000000	87,158786
1206,000000	87,135219
1205,000000	87,131192
1204,000000	87,128513
1203,000000	87,117688
1202,000000	87,104347
1201,000000	87,095416
1200,000000	87,084772
1199,000000	87,070818
1198,000000	87,073956
1197,000000	87,066134
1196,000000	87,053308
1195,000000	87,052764
1194,000000	87,047652
1193,000000	87,020454
1192,000000	87,007197
1191,000000	86,999310
1190,000000	86,994506
1189,000000	86,982486
1188,000000	86,972608
1187,000000	86,983502
1186,000000	86,964306
1185,000000	86,961611
1184,000000	86,947505
1183,000000	86,957119
1182,000000	86,938177
1181,000000	86,922725
1180,000000	86,905857
1179,000000	86,915675
1178,000000	86,895004
1177,000000	86,871470
1176,000000	86,860400
1175,000000	86,859101
1174,000000	86,859343
1173,000000	86,844707
1172,000000	86,844517
1171,000000	86,836808
1170,000000	86,839778
1169,000000	86,826884
1168,000000	86,801147
1167,000000	86,777597
1166,000000	86,773599
1165,000000	86,773984
1164,000000	86,764486
1163,000000	86,752736
1162,000000	86,731123
1161,000000	86,724135
1160,000000	86,714761
1159,000000	86,702573
1158,000000	86,701559
1157,000000	86,691878
1156,000000	86,700766
1155,000000	86,680611
1154,000000	86,673380
1153,000000	86,657448
1152,000000	86,639852
1151,000000	86,629853
1150,000000	86,632563
1149,000000	86,633210
1148,000000	86,628446
1147,000000	86,627531
1146,000000	86,608075
1145,000000	86,595322
1144,000000	86,588528
1143,000000	86,575774
1142,000000	86,565508
1141,000000	86,559878
1140,000000	86,541393
1139,000000	86,537531
1138,000000	86,538034
1137,000000	86,538180
1136,000000	86,535397
1135,000000	86,518130
1134,000000	86,511714
1133,000000	86,507578
1132,000000	86,485541
1131,000000	86,500798
1130,000000	86,471756
1129,000000	86,458509
1128,000000	86,463370
1127,000000	86,448786
1126,000000	86,420248
1125,000000	86,408826
1124,000000	86,387951
1123,000000	86,372717
1122,000000	86,359095
1121,000000	86,359101
1120,000000	86,359388
1119,000000	86,352154
1118,000000	86,331793
1117,000000	86,331432
1116,000000	86,324287
1115,000000	86,306799
1114,000000	86,304999
1113,000000	86,300666
1112,000000	86,283556
1111,000000	86,278283
1110,000000	86,264674
1109,000000	86,252918
1108,000000	86,246884
1107,000000	86,230326
1106,000000	86,218774
1105,000000	86,211944
1104,000000	86,212765
1103,000000	86,212770
1102,000000	86,212088
1101,000000	86,180709
1100,000000	86,160491
1099,000000	86,145828
1098,000000	86,128818
1097,000000	86,132105
1096,000000	86,126376
1095,000000	86,128046
1094,000000	86,110685
1093,000000	86,087575
1092,000000	86,073211
1091,000000	86,064856
1090,000000	86,059975
1089,000000	86,052939
1088,000000	86,056886
1087,000000	86,049652
1086,000000	86,019990
1085,000000	86,011424
1084,000000	86,004502
1083,000000	86,008679
1082,000000	85,999807
1081,000000	85,981451
1080,000000	85,961852
1079,000000	85,954692
1078,000000	85,940083
1077,000000	85,936415
1076,000000	85,935765
1075,000000	85,935041
1074,000000	85,899679
1073,000000	85,879180
1072,000000	85,892227
1071,000000	85,893599
1070,000000	85,874765
1069,000000	85,869144
1068,000000	85,853557
1067,000000	85,842974
1066,000000	85,830044
1065,000000	85,818577
1064,000000	85,807576
1063,000000	85,799175
1062,000000	85,784069
1061,000000	85,767325
1060,000000	85,753270
1059,000000	85,751378
1058,000000	85,750359
1057,000000	85,739785
1056,000000	85,714750
1055,000000	85,716232
1054,000000	85,717107
1053,000000	85,721587
1052,000000	85,706861
1051,000000	85,694693
1050,000000	85,676800
1049,000000	85,666337
1048,000000	85,650050
1047,000000	85,634001
1046,000000	85,628200
1045,000000	85,630672
1044,000000	85,631858
1043,000000	85,615924
1042,000000	85,601360
1041,000000	85,586583
1040,000000	85,567963
1039,000000	85,551164
1038,000000	85,532673
1037,000000	85,516278
1036,000000	85,504924
1035,000000	85,492643
1034,000000	85,485999
1033,000000	85,484118
1032,000000	85,480680
1031,000000	85,468647
1030,000000	85,445495
1029,000000	85,426913
1028,000000	85,430450
1027,000000	85,424505
1026,000000	85,418802
1025,000000	85,409903
1024,000000	85,391032
1023,000000	85,377733
1022,000000	85,365148
1021,000000	85,349190
1020,000000	85,346171
1019,000000	85,346571
1018,000000	85,338039
1017,000000	85,325556
1016,000000	85,309775
1015,000000	85,284011
1014,000000	85,261066
1013,000000	85,250110
1012,000000	85,244509
1011,000000	85,222642
1010,000000	85,208913
1009,000000	85,211500
1008,000000	85,211898
1007,000000	85,203549
1006,000000	85,194005
1005,000000	85,181124
1004,000000	85,165365
1003,000000	85,149480
1002,000000	85,130095
1001,000000	85,116670
1000,000000	85,107882
999,000000	85,096941
998,000000	85,092329
997,000000	85,096109
996,000000	85,098018
995,000000	85,090709
994,000000	85,080240
993,000000	85,066526
992,000000	85,047200
991,000000	85,028638
990,000000	85,010286
989,000000	84,990769
988,000000	84,979098
987,000000	84,970155
986,000000	84,956224
985,000000	84,949856
984,000000	84,948846
983,000000	84,936113
982,000000	84,917789
981,000000	84,902399
980,000000	84,894815
979,000000	84,887733
978,000000	84,879677
977,000000	84,873817
976,000000	84,858385
975,000000	84,846489
974,000000	84,839296
973,000000	84,823610
972,000000	84,806559
971,000000	84,793001
970,000000	84,784415
969,000000	84,771339
968,000000	84,756279
967,000000	84,754430
966,000000	84,744150
965,000000	84,721668
964,000000	84,708055
963,000000	84,699294
962,000000	84,679639
961,000000	84,669473
960,000000	84,673850
959,000000	84,671875
958,000000	84,666456
957,000000	84,655690
956,000000	84,642088
955,000000	84,621328
954,000000	84,601635
953,000000	84,602031
952,000000	84,591218
951,000000	84,576332
950,000000	84,565208
949,000000	84,562117
948,000000	84,548716
947,000000	84,526987
946,000000	84,509003
945,000000	84,502330
944,000000	84,484673
943,000000	84,482569
942,000000	84,474130
941,000000	84,467741
940,000000	84,465878
939,000000	84,456513
938,000000	84,433672
937,000000	84,425222
936,000000	84,421003
935,000000	84,409950
934,000000	84,383355
933,000000	84,371889
932,000000	84,371242
931,000000	84,376561
930,000000	84,359888
929,000000	84,334653
928,000000	84,327147
927,000000	84,324769
926,000000	84,293643
925,000000	84,264094
924,000000	84,276291
923,000000	84,275150
922,000000	84,256688
921,000000	84,237132
920,000000	84,238361
919,000000	84,223235
918,000000	84,220507
917,000000	84,210257
916,000000	84,208195
915,000000	84,197530
914,000000	84,182777
913,000000	84,154314
912,000000	84,142434
911,000000	84,133717
910,000000	84,125342
909,000000	84,113563
908,000000	84,109671
907,000000	84,088726
906,000000	84,083992
905,000000	84,058524
904,000000	84,063907
903,000000	84,037334
902,000000	84,013362
901,000000	84,002289
900,000000	83,986312
899,000000	83,969214
898,000000	83,956560
897,000000	83,961265
896,000000	83,933981
895,000000	83,923207
894,000000	83,929020
893,000000	83,907521
892,000000	83,882649
891,000000	83,858091
890,000000	83,872926
889,000000	83,868268
888,000000	83,843025
887,000000	83,848657
886,000000	83,787441
885,000000	83,822317
884,000000	83,790299
883,000000	83,772934
882,000000	83,742567
881,000000	83,753572
880,000000	83,752271
879,000000	83,740146
878,000000	83,695368
877,000000	83,715177
876,000000	83,733184
875,000000	83,704456
874,000000	83,677659
873,000000	83,703835
872,000000	83,713526
871,000000	83,692156
870,000000	83,660811
869,000000	83,642797
868,000000	83,619455
867,000000	83,653742
866,000000	83,623734
865,000000	83,563458
864,000000	83,532645
863,000000	83,554120
862,000000	83,590327
861,000000	83,494381
860,000000	83,506234
859,000000	83,544386
858,000000	83,543829
857,000000	68,483716
856,000000	104,976022
855,000000	90,093592
854,000000	105,618631
853,000000	109,827490
852,000000	92,204182
851,000000	84,458806
850,000000	112,081233
849,000000	91,285293
848,000000	77,781098
847,000000	68,648973
846,000000	80,448222
845,000000	77,953647
844,000000	77,533400
843,000000	62,156627
842,000000	83,987813
841,000000	74,815967
840,000000	62,262347
839,000000	79,733164
838,000000	95,436131
837,000000	82,991263
836,000000	83,026318
835,000000	82,871031
834,000000	83,000681
833,000000	83,158505
832,000000	83,489125
831,000000	83,502352
830,000000	83,053530
829,000000	83,241061
828,000000	83,009117
827,000000	82,828475
826,000000	83,073264
825,000000	83,015112
824,000000	83,447774
823,000000	83,198699
822,000000	83,066856
821,000000	82,980450
820,000000	82,936059
819,000000	82,889002
818,000000	83,007801
817,000000	82,898456
816,000000	83,151072
815,000000	83,039381
814,000000	83,071462
813,000000	83,106286
812,000000	82,763646
811,000000	82,945039
810,000000	83,104367
809,000000	82,815646
808,000000	83,037102
807,000000	82,852932
806,000000	82,987357
805,000000	82,988438
804,000000	83,092570
803,000000	83,184565
802,000000	82,832805
801,000000	83,090134
800,000000	82,711714
799,000000	82,652424
798,000000	82,792443
797,000000	82,732476
796,000000	82,726307
795,000000	82,968426
794,000000	82,904856
793,000000	82,797920
792,000000	82,676507
791,000000	82,765229
790,000000	83,010157
789,000000	82,934055
788,000000	82,666453
787,000000	82,773802
786,000000	82,786713
785,000000	82,699821
784,000000	82,624319
783,000000	82,767665
782,000000	82,596212
781,000000	82,581170
780,000000	82,624676
779,000000	82,785649
778,000000	82,663080
777,000000	82,694221
776,000000	82,760375
775,000000	82,611051
774,000000	82,440848
773,000000	82,662676
772,000000	82,665572
771,000000	82,459498
770,000000	82,546062
769,000000	82,368184
768,000000	82,563527
767,000000	82,378485
766,000000	82,581762
765,000000	82,564711
764,000000	82,570961
763,000000	82,509515
762,000000	82,651336
761,000000	82,547103
760,000000	82,414217
759,000000	82,360760
758,000000	82,421842
757,000000	82,558848
756,000000	82,359313
755,000000	82,426598
754,000000	82,418419
753,000000	82,431534
752,000000	82,435220
751,000000	82,512325
750,000000	82,353860
749,000000	82,325309
748,000000	82,274297
747,000000	82,384961
746,000000	82,464466
745,000000	82,437835
744,000000	82,431334
743,000000	82,466589
742,000000	82,398495
741,000000	82,288697
740,000000	82,371438
739,000000	82,330718
738,000000	82,354075
737,000000	82,338723
736,000000	82,313952
735,000000	82,287995
734,000000	82,276487
733,000000	82,390566
732,000000	82,332834
731,000000	82,490512
730,000000	82,439506
729,000000	82,235087
728,000000	82,200536
727,000000	82,282093
726,000000	82,244774
725,000000	82,316407
724,000000	82,292310
723,000000	82,234455
722,000000	82,226595
721,000000	82,209025
720,000000	82,124556
719,000000	82,195801
718,000000	82,290458
717,000000	82,233682
716,000000	82,237846
715,000000	82,245092
714,000000	82,187800
713,000000	82,109971
712,000000	82,087710
711,000000	82,134101
710,000000	82,184762
709,000000	82,103408
708,000000	82,067301
707,000000	82,119605
706,000000	82,121549
705,000000	82,104173
704,000000	82,125460
703,000000	82,147172
702,000000	82,105944
701,000000	82,064004
700,000000	82,113259
699,000000	82,095211
698,000000	82,047982
697,000000	82,052133
696,000000	82,084736
695,000000	82,086324
694,000000	82,112346
693,000000	82,176937
692,000000	82,167463
691,000000	82,102317
690,000000	82,037132
689,000000	82,024743
688,000000	82,064793
687,000000	82,062159
686,000000	82,065383
685,000000	82,049166
684,000000	81,959150
683,000000	81,955657
682,000000	82,009545
681,000000	82,042250
680,000000	81,967690
679,000000	81,959147
678,000000	81,997508
677,000000	82,033275
676,000000	82,069720
675,000000	82,058524
674,000000	82,021556
673,000000	81,997506
672,000000	81,957777
671,000000	81,987016
670,000000	82,068202
669,000000	82,044498
668,000000	81,988085
667,000000	81,956721
666,000000	82,042294
665,000000	82,051113
664,000000	82,015354
663,000000	82,036079
662,000000	81,969369
661,000000	81,971706
660,000000	81,954987
659,000000	81,916576
658,000000	81,969308
657,000000	81,953322
656,000000	81,925109
655,000000	81,991025
654,000000	82,040238
653,000000	82,051741
652,000000	81,973976
651,000000	81,951863
650,000000	81,993703
649,000000	81,979422
648,000000	81,994862
647,000000	82,006779
646,000000	81,980738
645,000000	81,942432
644,000000	81,983842
643,000000	82,075385
642,000000	82,024944
641,000000	82,055342
640,000000	82,032754
639,000000	82,051938
638,000000	82,028533
637,000000	82,052877
636,000000	82,026442
635,000000	81,966414
634,000000	81,990652
633,000000	81,971040
632,000000	82,001355
631,000000	82,054889
630,000000	82,066556
629,000000	82,078995
628,000000	82,096423
627,000000	82,055151
626,000000	82,059229
625,000000	82,120363
624,000000	82,043856
623,000000	82,066235
622,000000	82,143364
621,000000	82,112118
620,000000	82,114565
619,000000	82,130465
618,000000	82,085296
617,000000	82,099649
616,000000	82,137803
615,000000	82,134819
614,000000	82,161130
613,000000	82,197652
612,000000	82,223666
611,000000	82,174372
610,000000	82,186255
609,000000	82,198281
608,000000	82,178818
607,000000	82,168201
606,000000	82,199709
605,000000	82,262298
604,000000	82,262062
603,000000	82,273320
602,000000	82,345944
601,000000	82,301857
600,000000	82,284434
599,000000	82,282741
598,000000	82,319270
597,000000	82,368527
596,000000	82,391268
595,000000	82,344623
594,000000	82,311149
593,000000	82,373494
592,000000	82,450122
591,000000	82,460038
590,000000	82,431093
589,000000	82,446409
588,000000	82,451344
587,000000	82,431364
586,000000	82,463755
585,000000	82,465718
584,000000	82,513208
583,000000	82,520053
582,000000	82,517130
581,000000	82,586135
580,000000	82,586944
579,000000	82,635761
578,000000	82,607808
577,000000	82,670073
576,000000	82,695955
575,000000	82,669701
574,000000	82,647059
573,000000	82,622867
572,000000	82,667338
571,000000	82,721974
570,000000	82,732793
569,000000	82,771938
568,000000	82,790749
567,000000	82,813796
566,000000	82,785124
565,000000	82,818036
564,000000	82,855640
563,000000	82,860726
562,000000	82,874018
561,000000	82,886579
560,000000	82,904789
559,000000	83,034023
558,000000	83,063733
557,000000	83,035548
556,000000	83,046441
555,000000	83,022689
554,000000	83,055720
553,000000	83,151084
552,000000	83,162099
551,000000	83,151298
550,000000	83,284094
549,000000	83,197600
548,000000	83,309688
547,000000	83,281928
546,000000	83,318746
545,000000	83,372476
544,000000	83,419210
543,000000	83,362118
542,000000	83,408205
541,000000	83,429697
540,000000	83,461409
539,000000	83,573795
538,000000	83,590372
537,000000	83,569350
536,000000	83,647055
535,000000	83,682276
534,000000	83,665143
533,000000	83,682408
532,000000	83,718818
531,000000	83,682548
530,000000	83,794244
529,000000	83,863875
528,000000	83,837422
527,000000	83,922997
526,000000	83,887278
525,000000	83,967973
524,000000	83,992294
523,000000	84,021824
522,000000	84,050996
521,000000	84,087762
520,000000	84,120719
519,000000	84,164491
518,000000	84,192678
517,000000	84,267968
516,000000	84,214015
515,000000	84,357394
514,000000	84,344983
513,000000	84,415891
512,000000	84,452047
511,000000	84,474438
510,000000	84,545223
509,000000	84,532471
508,000000	84,623790
507,000000	84,668669
506,000000	84,755595
505,000000	84,688214
504,000000	84,894024
503,000000	84,898375
502,000000	84,870529
501,000000	85,045558
500,000000	84,993211
499,000000	85,098313
498,000000	85,103969
497,000000	85,112372
496,000000	85,222532
495,000000	85,264305
494,000000	85,290858
493,000000	85,305963
492,000000	85,436741
491,000000	85,492690
490,000000	85,489864
489,000000	85,518618
488,000000	85,583474
487,000000	85,616357
486,000000	85,772672
485,000000	85,810686
484,000000	85,925126
483,000000	85,884299
482,000000	85,950751
481,000000	86,053433
480,000000	86,084268
479,000000	86,165954
478,000000	86,188617
477,000000	86,227606
476,000000	86,358928
475,000000	86,418062
474,000000	86,436495
473,000000	86,561852
472,000000	86,678200
471,000000	86,648699
470,000000	86,707249
469,000000	86,700624
468,000000	86,869949
467,000000	86,876526
466,000000	87,023585
465,000000	86,981904
464,000000	87,138037
463,000000	87,211992
462,000000	87,291465
461,000000	87,253482
460,000000	87,383909
459,000000	87,451748
458,000000	87,539493
457,000000	87,615010
456,000000	87,612340
455,000000	87,785186
454,000000	87,884892
453,000000	87,896308
452,000000	88,075130
451,000000	88,051088
450,000000	88,157023
449,000000	88,289555
448,000000	88,381663
447,000000	88,325687
446,000000	88,509766
445,000000	88,538260
444,000000	88,663025
443,000000	88,714101
442,000000	88,789069
441,000000	88,823129
440,000000	88,881905
439,000000	88,956691
438,000000	89,054487
437,000000	89,158506
436,000000	89,260798
435,000000	89,263831
434,000000	89,464254
433,000000	89,563098
432,000000	89,624616
431,000000	89,620915
430,000000	89,696022
429,000000	89,794532
428,000000	89,990146
427,000000	89,906289
426,000000	90,003261
425,000000	90,109371
424,000000	90,167352
423,000000	90,213622
422,000000	90,359793
421,000000	90,455614
420,000000	90,605217
419,000000	90,754876
418,000000	90,792372
417,000000	90,842476
416,000000	90,962445
415,000000	91,016927
414,000000	90,962381
413,000000	91,163823
412,000000	91,308046
411,000000	91,415027
410,000000	91,410197
409,000000	91,460140
408,000000	91,555344
407,000000	91,586531
406,000000	91,585714
405,000000	91,752581
404,000000	91,836597
403,000000	91,899184
402,000000	91,923391
401,000000	91,925766
400,000000	92,082610
399,000000	92,120229
398,000000	92,161546
397,000000	92,251039
396,000000	92,379365
395,000000	92,455645
394,000000	92,435181
393,000000	92,539119
392,000000	92,507691
391,000000	92,425076
390,000000	92,604212
389,000000	92,719277
388,000000	92,676758
387,000000	92,736013
386,000000	92,757406
385,000000	92,771960
384,000000	92,765386
383,000000	92,727932
382,000000	92,805989
381,000000	92,958064
380,000000	92,845361
379,000000	92,638285
378,000000	92,691487
377,000000	92,734697
376,000000	92,635982
375,000000	92,238606
374,000000	92,204534
373,000000	92,692081
372,000000	93,165197
371,000000	92,795054
370,000000	92,034401
369,000000	92,198461
368,000000	92,106639
367,000000	92,047912
366,000000	92,030955
365,000000	91,775135
364,000000	91,932145
363,000000	90,993506
362,000000	90,074162
361,000000	90,260659
360,000000	90,135189
359,000000	90,346674
358,000000	89,962642
357,000000	89,414482
356,000000	89,029255
355,000000	88,541102
354,000000	87,927614
353,000000	87,773460
352,000000	87,868731
351,000000	87,090847
350,000000	86,423990
349,000000	85,512631
348,000000	85,045737
347,000000	84,799769
346,000000	84,362286
345,000000	83,328793
344,000000	82,213557
343,000000	81,362647
342,000000	80,593250
341,000000	79,974121
340,000000	79,324990
339,000000	78,516213
338,000000	77,536357
337,000000	76,612432
336,000000	75,917301
335,000000	74,351300
334,000000	73,231732
333,000000	72,698847
332,000000	71,627930
331,000000	70,553534
330,000000	70,102107
329,000000	69,299206
328,000000	67,968325
327,000000	66,498064
326,000000	64,651267
325,000000	63,925865
324,000000	62,756306
323,000000	61,355069
322,000000	60,362111
321,000000	59,243894
320,000000	57,666400
319,000000	56,522665
318,000000	54,797047
317,000000	54,289733
316,000000	53,041873
315,000000	51,338381
314,000000	50,151186
313,000000	49,025256
312,000000	47,767202
311,000000	46,631376
310,000000	45,415751
309,000000	44,205233
308,000000	42,966123
307,000000	41,983422
306,000000	40,803476
305,000000	39,632397
304,000000	38,549854
303,000000	37,492356
302,000000	36,470405
301,000000	35,459984
300,000000	34,303646
299,000000	33,224144
298,000000	32,119840
297,000000	31,184183
296,000000	30,256651
295,000000	29,424617
294,000000	28,464480
293,000000	27,514017
292,000000	26,577560
291,000000	25,627814
290,000000	24,759771
289,000000	24,040378
288,000000	23,229967
287,000000	22,395003
286,000000	21,602084
285,000000	20,800678
284,000000	20,182869
283,000000	19,421826
282,000000	18,700907
281,000000	18,077483
280,000000	17,495949
279,000000	16,841417
278,000000	16,215821
277,000000	15,729538
276,000000	15,136364
275,000000	14,671004
274,000000	14,155472
273,000000	13,696017
272,000000	13,201747
271,000000	12,899231
270,000000	12,467858
269,000000	12,030783
268,000000	11,643941
267,000000	11,257228
266,000000	10,976436
265,000000	10,632929
264,000000	10,303495
263,000000	10,011441
262,000000	9,766044
261,000000	9,451073
260,000000	9,214877
259,000000	8,942605
258,000000	8,692142
257,000000	8,388896
256,000000	8,185232
255,000000	7,998442
254,000000	7,805716
253,000000	7,600231
252,000000	7,434782
251,000000	7,224512
250,000000	7,047665
