PE UV       SUBTECH     SPECTRUM    ASCII       PEDS        4.00        
   -1
WO3_cuarzo_20260507_S5_7sccm_A.ASC
26/05/13
11:57:38.00
26/05/13
11:57:38.00
Edgar Rojas

250,000000
1
Lambda 1050
1050L1511233
PerkinElmer UV WinLab 6.3.2.0749 / 2.02.05 Lambda 900 UV/VIS/NIR, Aug  7 2015 09:38:08

0
0
3350/servo 860,8/2
0
0
UV/VIS
1
1
1
DoubleDePol,CommonBeamDepol,RBeamAtt,SBeamAtt,60mm sphere, WB InGaAs Detector
0
0
0
0
Program
Program
3350/servo 860,8/2
3350/0,2 840/0,2
3350/0,2 840/0,2
0
8.10
 
 
 
0
 
860,8
319,2
840
Front
100
on
S:100 R:100
0
0
0
0
 
0
 
 
 
0
 
 
0
0
0
0
0
 
 
 
 
0
0


0
0
#HDR
-1
-1
#GR
nm
%T
1.0
0.0
2000,000000
-1,000000
1751
8
112,327029
1,867903
#DATA
2000,000000	87,285895
1999,000000	87,280049
1998,000000	87,288866
1997,000000	87,284074
1996,000000	87,266742
1995,000000	87,253925
1994,000000	87,232993
1993,000000	87,234240
1992,000000	87,230310
1991,000000	87,229752
1990,000000	87,229332
1989,000000	87,214844
1988,000000	87,198520
1987,000000	87,195920
1986,000000	87,194523
1985,000000	87,180638
1984,000000	87,176087
1983,000000	87,164076
1982,000000	87,158323
1981,000000	87,142018
1980,000000	87,140528
1979,000000	87,147298
1978,000000	87,133229
1977,000000	87,129616
1976,000000	87,130184
1975,000000	87,123111
1974,000000	87,109819
1973,000000	87,101143
1972,000000	87,087595
1971,000000	87,085246
1970,000000	87,085028
1969,000000	87,074839
1968,000000	87,061222
1967,000000	87,064791
1966,000000	87,057060
1965,000000	87,049905
1964,000000	87,049810
1963,000000	87,048791
1962,000000	87,026456
1961,000000	87,019421
1960,000000	87,010724
1959,000000	87,011503
1958,000000	87,009313
1957,000000	87,002655
1956,000000	86,989834
1955,000000	86,984431
1954,000000	86,967922
1953,000000	86,949171
1952,000000	86,950303
1951,000000	86,954311
1950,000000	86,958756
1949,000000	86,948707
1948,000000	86,945012
1947,000000	86,955287
1946,000000	86,957222
1945,000000	86,931101
1944,000000	86,931531
1943,000000	86,929101
1942,000000	86,916219
1941,000000	86,904765
1940,000000	86,902103
1939,000000	86,891436
1938,000000	86,885741
1937,000000	86,900494
1936,000000	86,894461
1935,000000	86,881775
1934,000000	86,877706
1933,000000	86,876114
1932,000000	86,875916
1931,000000	86,872905
1930,000000	86,852662
1929,000000	86,855924
1928,000000	86,857759
1927,000000	86,860482
1926,000000	86,845039
1925,000000	86,831226
1924,000000	86,820227
1923,000000	86,822233
1922,000000	86,815762
1921,000000	86,804227
1920,000000	86,796197
1919,000000	86,801663
1918,000000	86,804363
1917,000000	86,804084
1916,000000	86,806626
1915,000000	86,800563
1914,000000	86,775356
1913,000000	86,771111
1912,000000	86,780566
1911,000000	86,766929
1910,000000	86,747568
1909,000000	86,737672
1908,000000	86,731964
1907,000000	86,736084
1906,000000	86,743064
1905,000000	86,741371
1904,000000	86,725273
1903,000000	86,694095
1902,000000	86,679575
1901,000000	86,688249
1900,000000	86,679749
1899,000000	86,657871
1898,000000	86,654091
1897,000000	86,652354
1896,000000	86,643902
1895,000000	86,630440
1894,000000	86,626708
1893,000000	86,622472
1892,000000	86,619022
1891,000000	86,613955
1890,000000	86,608166
1889,000000	86,605233
1888,000000	86,606969
1887,000000	86,612519
1886,000000	86,604489
1885,000000	86,603070
1884,000000	86,615217
1883,000000	86,603316
1882,000000	86,580823
1881,000000	86,567728
1880,000000	86,552307
1879,000000	86,542164
1878,000000	86,529439
1877,000000	86,519055
1876,000000	86,521744
1875,000000	86,511845
1874,000000	86,500883
1873,000000	86,489033
1872,000000	86,483590
1871,000000	86,477491
1870,000000	86,464175
1869,000000	86,463752
1868,000000	86,466922
1867,000000	86,464980
1866,000000	86,460576
1865,000000	86,458644
1864,000000	86,458130
1863,000000	86,445660
1862,000000	86,428247
1861,000000	86,407038
1860,000000	86,397606
1859,000000	86,397286
1858,000000	86,396930
1857,000000	86,397963
1856,000000	86,396234
1855,000000	86,382595
1854,000000	86,357466
1853,000000	86,338467
1852,000000	86,324887
1851,000000	86,311144
1850,000000	86,307160
1849,000000	86,305616
1848,000000	86,289773
1847,000000	86,281150
1846,000000	86,280566
1845,000000	86,275830
1844,000000	86,273221
1843,000000	86,254755
1842,000000	86,233437
1841,000000	86,221808
1840,000000	86,212417
1839,000000	86,207952
1838,000000	86,212784
1837,000000	86,218671
1836,000000	86,213718
1835,000000	86,207982
1834,000000	86,207800
1833,000000	86,197530
1832,000000	86,176069
1831,000000	86,159800
1830,000000	86,163114
1829,000000	86,173392
1828,000000	86,171629
1827,000000	86,167353
1826,000000	86,161278
1825,000000	86,147798
1824,000000	86,128218
1823,000000	86,108366
1822,000000	86,100928
1821,000000	86,099398
1820,000000	86,086248
1819,000000	86,072559
1818,000000	86,070218
1817,000000	86,070840
1816,000000	86,063215
1815,000000	86,061182
1814,000000	86,057725
1813,000000	86,029700
1812,000000	86,013146
1811,000000	86,004059
1810,000000	85,987219
1809,000000	85,976549
1808,000000	85,968385
1807,000000	85,974353
1806,000000	85,965712
1805,000000	85,958515
1804,000000	85,958029
1803,000000	85,959596
1802,000000	85,951764
1801,000000	85,930931
1800,000000	85,909932
1799,000000	85,885234
1798,000000	85,880467
1797,000000	85,888373
1796,000000	85,880666
1795,000000	85,854008
1794,000000	85,857957
1793,000000	85,870940
1792,000000	85,859165
1791,000000	85,848910
1790,000000	85,850349
1789,000000	85,845233
1788,000000	85,833345
1787,000000	85,810681
1786,000000	85,791680
1785,000000	85,786513
1784,000000	85,787457
1783,000000	85,776713
1782,000000	85,765313
1781,000000	85,751829
1780,000000	85,738274
1779,000000	85,736231
1778,000000	85,734630
1777,000000	85,739996
1776,000000	85,715771
1775,000000	85,680696
1774,000000	85,664152
1773,000000	85,679827
1772,000000	85,683224
1771,000000	85,662584
1770,000000	85,645253
1769,000000	85,641996
1768,000000	85,629564
1767,000000	85,621944
1766,000000	85,615745
1765,000000	85,601964
1764,000000	85,597698
1763,000000	85,604383
1762,000000	85,610506
1761,000000	85,610338
1760,000000	85,603723
1759,000000	85,574840
1758,000000	85,557653
1757,000000	85,551299
1756,000000	85,540888
1755,000000	85,535697
1754,000000	85,531341
1753,000000	85,516485
1752,000000	85,505510
1751,000000	85,506607
1750,000000	85,496836
1749,000000	85,475124
1748,000000	85,456579
1747,000000	85,468466
1746,000000	85,443488
1745,000000	85,439574
1744,000000	85,445536
1743,000000	85,432970
1742,000000	85,419262
1741,000000	85,404397
1740,000000	85,387374
1739,000000	85,394678
1738,000000	85,385957
1737,000000	85,388650
1736,000000	85,366493
1735,000000	85,355336
1734,000000	85,343783
1733,000000	85,327554
1732,000000	85,327065
1731,000000	85,329025
1730,000000	85,321174
1729,000000	85,297424
1728,000000	85,267811
1727,000000	85,275460
1726,000000	85,287207
1725,000000	85,276796
1724,000000	85,267759
1723,000000	85,254401
1722,000000	85,229238
1721,000000	85,220680
1720,000000	85,218368
1719,000000	85,214000
1718,000000	85,209092
1717,000000	85,193372
1716,000000	85,181221
1715,000000	85,169615
1714,000000	85,178818
1713,000000	85,165661
1712,000000	85,143558
1711,000000	85,150398
1710,000000	85,143461
1709,000000	85,127850
1708,000000	85,127288
1707,000000	85,103846
1706,000000	85,087594
1705,000000	85,076524
1704,000000	85,068196
1703,000000	85,073569
1702,000000	85,067412
1701,000000	85,057648
1700,000000	85,049363
1699,000000	85,035265
1698,000000	85,033546
1697,000000	85,036706
1696,000000	85,041309
1695,000000	85,026445
1694,000000	85,009609
1693,000000	84,998583
1692,000000	84,975697
1691,000000	84,972147
1690,000000	84,954317
1689,000000	84,928527
1688,000000	84,915608
1687,000000	84,907472
1686,000000	84,921143
1685,000000	84,918723
1684,000000	84,896213
1683,000000	84,882552
1682,000000	84,885459
1681,000000	84,887642
1680,000000	84,882422
1679,000000	84,881505
1678,000000	84,870428
1677,000000	84,849756
1676,000000	84,833997
1675,000000	84,821550
1674,000000	84,795733
1673,000000	84,772178
1672,000000	84,770806
1671,000000	84,771980
1670,000000	84,769674
1669,000000	84,760470
1668,000000	84,743207
1667,000000	84,731753
1666,000000	84,717441
1665,000000	84,709930
1664,000000	84,700906
1663,000000	84,686148
1662,000000	84,676575
1661,000000	84,685457
1660,000000	84,676347
1659,000000	84,668190
1658,000000	84,657144
1657,000000	84,640795
1656,000000	84,632272
1655,000000	84,614360
1654,000000	84,596092
1653,000000	84,587687
1652,000000	84,580643
1651,000000	84,572483
1650,000000	84,562402
1649,000000	84,557672
1648,000000	84,553909
1647,000000	84,534795
1646,000000	84,517474
1645,000000	84,505667
1644,000000	84,507979
1643,000000	84,505090
1642,000000	84,495680
1641,000000	84,470300
1640,000000	84,471602
1639,000000	84,452038
1638,000000	84,433540
1637,000000	84,435961
1636,000000	84,437874
1635,000000	84,428527
1634,000000	84,399482
1633,000000	84,370631
1632,000000	84,372168
1631,000000	84,391990
1630,000000	84,400949
1629,000000	84,381809
1628,000000	84,369599
1627,000000	84,355622
1626,000000	84,345606
1625,000000	84,341217
1624,000000	84,313649
1623,000000	84,297461
1622,000000	84,297750
1621,000000	84,290646
1620,000000	84,283006
1619,000000	84,269593
1618,000000	84,248925
1617,000000	84,231567
1616,000000	84,211690
1615,000000	84,201999
1614,000000	84,196746
1613,000000	84,188867
1612,000000	84,178650
1611,000000	84,167256
1610,000000	84,163562
1609,000000	84,167041
1608,000000	84,173845
1607,000000	84,164784
1606,000000	84,149323
1605,000000	84,140222
1604,000000	84,135121
1603,000000	84,120323
1602,000000	84,097941
1601,000000	84,080424
1600,000000	84,075031
1599,000000	84,070463
1598,000000	84,059860
1597,000000	84,044759
1596,000000	84,033973
1595,000000	84,022973
1594,000000	84,022733
1593,000000	84,007409
1592,000000	83,988296
1591,000000	83,986117
1590,000000	83,985710
1589,000000	83,990336
1588,000000	83,977405
1587,000000	83,930069
1586,000000	83,909737
1585,000000	83,916554
1584,000000	83,914643
1583,000000	83,898553
1582,000000	83,889627
1581,000000	83,888935
1580,000000	83,883252
1579,000000	83,876511
1578,000000	83,871097
1577,000000	83,853542
1576,000000	83,841785
1575,000000	83,828885
1574,000000	83,813161
1573,000000	83,799948
1572,000000	83,789412
1571,000000	83,789868
1570,000000	83,794280
1569,000000	83,792340
1568,000000	83,778630
1567,000000	83,761155
1566,000000	83,735632
1565,000000	83,718768
1564,000000	83,713184
1563,000000	83,697421
1562,000000	83,681964
1561,000000	83,674006
1560,000000	83,658565
1559,000000	83,651245
1558,000000	83,647296
1557,000000	83,628478
1556,000000	83,621197
1555,000000	83,625033
1554,000000	83,612047
1553,000000	83,604103
1552,000000	83,599035
1551,000000	83,580871
1550,000000	83,571047
1549,000000	83,558914
1548,000000	83,533467
1547,000000	83,533297
1546,000000	83,540382
1545,000000	83,531210
1544,000000	83,519794
1543,000000	83,520256
1542,000000	83,514234
1541,000000	83,488965
1540,000000	83,472153
1539,000000	83,466346
1538,000000	83,457799
1537,000000	83,436881
1536,000000	83,411663
1535,000000	83,400118
1534,000000	83,399473
1533,000000	83,393515
1532,000000	83,383311
1531,000000	83,377091
1530,000000	83,372032
1529,000000	83,357819
1528,000000	83,344360
1527,000000	83,333441
1526,000000	83,309384
1525,000000	83,293831
1524,000000	83,292836
1523,000000	83,284583
1522,000000	83,273698
1521,000000	83,272203
1520,000000	83,260608
1519,000000	83,241001
1518,000000	83,230521
1517,000000	83,223025
1516,000000	83,212536
1515,000000	83,210840
1514,000000	83,207898
1513,000000	83,195319
1512,000000	83,183962
1511,000000	83,174202
1510,000000	83,165401
1509,000000	83,161223
1508,000000	83,160957
1507,000000	83,154493
1506,000000	83,131538
1505,000000	83,117325
1504,000000	83,111156
1503,000000	83,104679
1502,000000	83,090991
1501,000000	83,070405
1500,000000	83,059205
1499,000000	83,052262
1498,000000	83,040002
1497,000000	83,028586
1496,000000	83,007222
1495,000000	82,989771
1494,000000	82,969953
1493,000000	82,969644
1492,000000	82,966916
1491,000000	82,953333
1490,000000	82,947202
1489,000000	82,931389
1488,000000	82,923664
1487,000000	82,917739
1486,000000	82,898866
1485,000000	82,881841
1484,000000	82,877611
1483,000000	82,876510
1482,000000	82,873058
1481,000000	82,852780
1480,000000	82,833301
1479,000000	82,838955
1478,000000	82,841234
1477,000000	82,833839
1476,000000	82,824745
1475,000000	82,800431
1474,000000	82,798832
1473,000000	82,787673
1472,000000	82,774811
1471,000000	82,764175
1470,000000	82,761920
1469,000000	82,741926
1468,000000	82,708794
1467,000000	82,693138
1466,000000	82,693795
1465,000000	82,685937
1464,000000	82,667208
1463,000000	82,661477
1462,000000	82,658239
1461,000000	82,654475
1460,000000	82,646725
1459,000000	82,637949
1458,000000	82,621557
1457,000000	82,615785
1456,000000	82,612603
1455,000000	82,608549
1454,000000	82,591902
1453,000000	82,576868
1452,000000	82,566277
1451,000000	82,560069
1450,000000	82,553727
1449,000000	82,541538
1448,000000	82,527156
1447,000000	82,511251
1446,000000	82,495168
1445,000000	82,479231
1444,000000	82,475685
1443,000000	82,476852
1442,000000	82,455878
1441,000000	82,447224
1440,000000	82,437715
1439,000000	82,431693
1438,000000	82,427807
1437,000000	82,418315
1436,000000	82,396085
1435,000000	82,387739
1434,000000	82,380337
1433,000000	82,365719
1432,000000	82,344613
1431,000000	82,340248
1430,000000	82,327993
1429,000000	82,308018
1428,000000	82,289825
1427,000000	82,280454
1426,000000	82,249016
1425,000000	82,255962
1424,000000	82,277705
1423,000000	82,254803
1422,000000	82,256177
1421,000000	82,238488
1420,000000	82,214508
1419,000000	82,224707
1418,000000	82,228700
1417,000000	82,202016
1416,000000	82,193015
1415,000000	82,177909
1414,000000	82,173339
1413,000000	82,155183
1412,000000	82,130483
1411,000000	82,117957
1410,000000	82,102770
1409,000000	82,087527
1408,000000	82,073206
1407,000000	82,066300
1406,000000	82,039536
1405,000000	82,031969
1404,000000	82,024377
1403,000000	82,024691
1402,000000	82,014659
1401,000000	81,999830
1400,000000	81,965302
1399,000000	81,936602
1398,000000	81,924943
1397,000000	81,905227
1396,000000	81,886784
1395,000000	81,859935
1394,000000	81,839038
1393,000000	81,805676
1392,000000	81,808189
1391,000000	81,787146
1390,000000	81,768913
1389,000000	81,757657
1388,000000	81,754177
1387,000000	81,737635
1386,000000	81,710842
1385,000000	81,713083
1384,000000	81,711364
1383,000000	81,695809
1382,000000	81,680696
1381,000000	81,668226
1380,000000	81,666200
1379,000000	81,669226
1378,000000	81,671762
1377,000000	81,654861
1376,000000	81,653219
1375,000000	81,652964
1374,000000	81,642306
1373,000000	81,652807
1372,000000	81,666270
1371,000000	81,665130
1370,000000	81,674240
1369,000000	81,672527
1368,000000	81,659338
1367,000000	81,667610
1366,000000	81,675592
1365,000000	81,672947
1364,000000	81,655354
1363,000000	81,644327
1362,000000	81,641709
1361,000000	81,647089
1360,000000	81,641130
1359,000000	81,629581
1358,000000	81,632213
1357,000000	81,650198
1356,000000	81,616142
1355,000000	81,587712
1354,000000	81,585962
1353,000000	81,576238
1352,000000	81,568773
1351,000000	81,565254
1350,000000	81,568914
1349,000000	81,556070
1348,000000	81,545143
1347,000000	81,529748
1346,000000	81,505710
1345,000000	81,502275
1344,000000	81,495766
1343,000000	81,491542
1342,000000	81,468169
1341,000000	81,449938
1340,000000	81,431407
1339,000000	81,430832
1338,000000	81,434120
1337,000000	81,434339
1336,000000	81,428332
1335,000000	81,417182
1334,000000	81,410326
1333,000000	81,387996
1332,000000	81,376942
1331,000000	81,373709
1330,000000	81,350616
1329,000000	81,339200
1328,000000	81,326610
1327,000000	81,312238
1326,000000	81,303520
1325,000000	81,301766
1324,000000	81,292287
1323,000000	81,276655
1322,000000	81,262456
1321,000000	81,268407
1320,000000	81,274341
1319,000000	81,276665
1318,000000	81,279854
1317,000000	81,265334
1316,000000	81,239031
1315,000000	81,239087
1314,000000	81,235007
1313,000000	81,226941
1312,000000	81,213088
1311,000000	81,197621
1310,000000	81,183750
1309,000000	81,177814
1308,000000	81,176057
1307,000000	81,161327
1306,000000	81,144945
1305,000000	81,143790
1304,000000	81,136006
1303,000000	81,130694
1302,000000	81,119265
1301,000000	81,095910
1300,000000	81,084120
1299,000000	81,085080
1298,000000	81,079667
1297,000000	81,067665
1296,000000	81,052048
1295,000000	81,044539
1294,000000	81,037744
1293,000000	81,031674
1292,000000	81,022576
1291,000000	81,009171
1290,000000	81,005859
1289,000000	81,003930
1288,000000	80,984613
1287,000000	80,971534
1286,000000	80,969574
1285,000000	80,953219
1284,000000	80,944685
1283,000000	80,939015
1282,000000	80,919157
1281,000000	80,909891
1280,000000	80,904798
1279,000000	80,906300
1278,000000	80,918979
1277,000000	80,913624
1276,000000	80,897072
1275,000000	80,888430
1274,000000	80,875208
1273,000000	80,855490
1272,000000	80,838427
1271,000000	80,831539
1270,000000	80,828783
1269,000000	80,818010
1268,000000	80,803906
1267,000000	80,799645
1266,000000	80,801647
1265,000000	80,798735
1264,000000	80,790594
1263,000000	80,777364
1262,000000	80,765360
1261,000000	80,766293
1260,000000	80,768642
1259,000000	80,763777
1258,000000	80,757017
1257,000000	80,749761
1256,000000	80,734922
1255,000000	80,718336
1254,000000	80,719467
1253,000000	80,717808
1252,000000	80,713446
1251,000000	80,711764
1250,000000	80,716239
1249,000000	80,688080
1248,000000	80,652035
1247,000000	80,639636
1246,000000	80,632337
1245,000000	80,621367
1244,000000	80,611297
1243,000000	80,594956
1242,000000	80,582411
1241,000000	80,576268
1240,000000	80,575774
1239,000000	80,581368
1238,000000	80,580888
1237,000000	80,573553
1236,000000	80,560566
1235,000000	80,554632
1234,000000	80,546578
1233,000000	80,538223
1232,000000	80,526026
1231,000000	80,507702
1230,000000	80,507335
1229,000000	80,508861
1228,000000	80,504718
1227,000000	80,500567
1226,000000	80,473469
1225,000000	80,454939
1224,000000	80,455389
1223,000000	80,468187
1222,000000	80,471674
1221,000000	80,448031
1220,000000	80,444014
1219,000000	80,451229
1218,000000	80,443380
1217,000000	80,429085
1216,000000	80,424511
1215,000000	80,430675
1214,000000	80,433411
1213,000000	80,415603
1212,000000	80,401557
1211,000000	80,389743
1210,000000	80,381675
1209,000000	80,382661
1208,000000	80,373275
1207,000000	80,359159
1206,000000	80,346109
1205,000000	80,347181
1204,000000	80,345842
1203,000000	80,338713
1202,000000	80,326716
1201,000000	80,321448
1200,000000	80,320630
1199,000000	80,309059
1198,000000	80,307334
1197,000000	80,301614
1196,000000	80,288058
1195,000000	80,282920
1194,000000	80,277497
1193,000000	80,270316
1192,000000	80,268656
1191,000000	80,258179
1190,000000	80,244245
1189,000000	80,236712
1188,000000	80,235626
1187,000000	80,225365
1186,000000	80,212961
1185,000000	80,201563
1184,000000	80,199426
1183,000000	80,213373
1182,000000	80,208773
1181,000000	80,202158
1180,000000	80,188508
1179,000000	80,193950
1178,000000	80,179329
1177,000000	80,149349
1176,000000	80,143564
1175,000000	80,142641
1174,000000	80,148931
1173,000000	80,138252
1172,000000	80,136571
1171,000000	80,124074
1170,000000	80,116833
1169,000000	80,105767
1168,000000	80,111519
1167,000000	80,102319
1166,000000	80,103571
1165,000000	80,108790
1164,000000	80,098741
1163,000000	80,096993
1162,000000	80,087676
1161,000000	80,076435
1160,000000	80,052929
1159,000000	80,039152
1158,000000	80,029332
1157,000000	80,021215
1156,000000	80,033787
1155,000000	80,030102
1154,000000	80,034072
1153,000000	80,022893
1152,000000	80,022763
1151,000000	80,015340
1150,000000	80,010732
1149,000000	79,999165
1148,000000	79,978469
1147,000000	79,972350
1146,000000	79,954855
1145,000000	79,957719
1144,000000	79,961238
1143,000000	79,967764
1142,000000	79,968601
1141,000000	79,968173
1140,000000	79,949777
1139,000000	79,948664
1138,000000	79,951371
1137,000000	79,956831
1136,000000	79,958906
1135,000000	79,939229
1134,000000	79,926301
1133,000000	79,930123
1132,000000	79,913697
1131,000000	79,942841
1130,000000	79,936901
1129,000000	79,907112
1128,000000	79,913143
1127,000000	79,910967
1126,000000	79,895726
1125,000000	79,900217
1124,000000	79,886764
1123,000000	79,887147
1122,000000	79,885464
1121,000000	79,868006
1120,000000	79,866546
1119,000000	79,854757
1118,000000	79,846140
1117,000000	79,832894
1116,000000	79,830086
1115,000000	79,833814
1114,000000	79,839030
1113,000000	79,833830
1112,000000	79,832304
1111,000000	79,825675
1110,000000	79,822126
1109,000000	79,817645
1108,000000	79,815724
1107,000000	79,807298
1106,000000	79,797780
1105,000000	79,794475
1104,000000	79,798476
1103,000000	79,798333
1102,000000	79,805325
1101,000000	79,784828
1100,000000	79,787778
1099,000000	79,782751
1098,000000	79,777509
1097,000000	79,783356
1096,000000	79,771609
1095,000000	79,773673
1094,000000	79,758183
1093,000000	79,749824
1092,000000	79,756761
1091,000000	79,751220
1090,000000	79,741066
1089,000000	79,725918
1088,000000	79,724829
1087,000000	79,733125
1086,000000	79,726261
1085,000000	79,720670
1084,000000	79,729952
1083,000000	79,740187
1082,000000	79,743445
1081,000000	79,726339
1080,000000	79,713686
1079,000000	79,695531
1078,000000	79,685312
1077,000000	79,676312
1076,000000	79,676698
1075,000000	79,679091
1074,000000	79,664761
1073,000000	79,660557
1072,000000	79,679794
1071,000000	79,680738
1070,000000	79,678977
1069,000000	79,680105
1068,000000	79,671221
1067,000000	79,669470
1066,000000	79,670825
1065,000000	79,662709
1064,000000	79,662653
1063,000000	79,666375
1062,000000	79,660324
1061,000000	79,656000
1060,000000	79,650779
1059,000000	79,649094
1058,000000	79,648728
1057,000000	79,656460
1056,000000	79,660636
1055,000000	79,661182
1054,000000	79,653588
1053,000000	79,654695
1052,000000	79,656030
1051,000000	79,657744
1050,000000	79,651527
1049,000000	79,639839
1048,000000	79,623603
1047,000000	79,616853
1046,000000	79,630279
1045,000000	79,635374
1044,000000	79,642502
1043,000000	79,644284
1042,000000	79,642756
1041,000000	79,641834
1040,000000	79,638037
1039,000000	79,631660
1038,000000	79,631845
1037,000000	79,632379
1036,000000	79,619743
1035,000000	79,604387
1034,000000	79,606107
1033,000000	79,610411
1032,000000	79,607154
1031,000000	79,595353
1030,000000	79,587756
1029,000000	79,589523
1028,000000	79,602680
1027,000000	79,601988
1026,000000	79,593531
1025,000000	79,590364
1024,000000	79,589951
1023,000000	79,589079
1022,000000	79,589197
1021,000000	79,585398
1020,000000	79,592824
1019,000000	79,605252
1018,000000	79,598856
1017,000000	79,581641
1016,000000	79,573726
1015,000000	79,575914
1014,000000	79,578449
1013,000000	79,588450
1012,000000	79,587435
1011,000000	79,574642
1010,000000	79,571779
1009,000000	79,587579
1008,000000	79,593152
1007,000000	79,591294
1006,000000	79,601047
1005,000000	79,605984
1004,000000	79,596615
1003,000000	79,585800
1002,000000	79,580719
1001,000000	79,572128
1000,000000	79,561856
999,000000	79,565922
998,000000	79,576149
997,000000	79,583429
996,000000	79,590126
995,000000	79,590131
994,000000	79,593577
993,000000	79,598589
992,000000	79,597873
991,000000	79,598494
990,000000	79,597871
989,000000	79,587063
988,000000	79,587985
987,000000	79,597762
986,000000	79,593760
985,000000	79,595775
984,000000	79,596538
983,000000	79,595833
982,000000	79,593645
981,000000	79,581901
980,000000	79,584237
979,000000	79,592072
978,000000	79,591792
977,000000	79,592019
976,000000	79,585379
975,000000	79,585799
974,000000	79,591247
973,000000	79,587368
972,000000	79,581342
971,000000	79,575566
970,000000	79,577282
969,000000	79,583136
968,000000	79,588289
967,000000	79,601625
966,000000	79,605671
965,000000	79,590884
964,000000	79,578843
963,000000	79,584071
962,000000	79,584220
961,000000	79,593064
960,000000	79,608752
959,000000	79,612796
958,000000	79,625097
957,000000	79,635079
956,000000	79,635257
955,000000	79,634856
954,000000	79,632375
953,000000	79,641351
952,000000	79,656757
951,000000	79,658427
950,000000	79,660943
949,000000	79,659421
948,000000	79,647586
947,000000	79,646594
946,000000	79,656559
945,000000	79,667825
944,000000	79,662059
943,000000	79,651371
942,000000	79,647654
941,000000	79,651826
940,000000	79,667361
939,000000	79,677581
938,000000	79,688185
937,000000	79,697755
936,000000	79,701636
935,000000	79,698294
934,000000	79,674637
933,000000	79,686334
932,000000	79,696126
931,000000	79,709143
930,000000	79,713423
929,000000	79,713446
928,000000	79,735448
927,000000	79,744436
926,000000	79,736172
925,000000	79,735973
924,000000	79,741409
923,000000	79,749925
922,000000	79,744590
921,000000	79,742353
920,000000	79,751918
919,000000	79,757052
918,000000	79,766110
917,000000	79,787694
916,000000	79,788584
915,000000	79,779721
914,000000	79,786732
913,000000	79,798532
912,000000	79,804390
911,000000	79,813101
910,000000	79,795094
909,000000	79,806080
908,000000	79,816829
907,000000	79,822222
906,000000	79,842545
905,000000	79,849965
904,000000	79,851927
903,000000	79,859102
902,000000	79,842531
901,000000	79,850609
900,000000	79,851146
899,000000	79,851396
898,000000	79,835856
897,000000	79,858118
896,000000	79,843787
895,000000	79,850673
894,000000	79,875141
893,000000	79,863587
892,000000	79,893298
891,000000	79,860852
890,000000	79,911574
889,000000	79,930476
888,000000	79,930167
887,000000	79,942544
886,000000	79,920245
885,000000	79,941717
884,000000	79,954127
883,000000	79,941832
882,000000	79,942781
881,000000	79,960774
880,000000	80,001318
879,000000	80,038198
878,000000	80,018200
877,000000	80,009511
876,000000	80,026247
875,000000	80,025475
874,000000	80,019411
873,000000	80,072428
872,000000	80,105420
871,000000	80,086196
870,000000	80,106692
869,000000	80,029247
868,000000	80,070563
867,000000	80,142360
866,000000	80,074163
865,000000	80,119813
864,000000	80,090210
863,000000	80,165276
862,000000	80,228323
861,000000	80,140128
860,000000	80,173691
859,000000	80,186778
858,000000	80,188263
857,000000	73,419799
856,000000	104,682055
855,000000	80,522602
854,000000	110,599565
853,000000	93,003617
852,000000	92,230799
851,000000	60,699326
850,000000	77,159033
849,000000	65,555397
848,000000	82,500475
847,000000	62,071896
846,000000	61,262576
845,000000	81,259201
844,000000	73,423175
843,000000	65,055368
842,000000	74,788588
841,000000	90,827824
840,000000	109,960868
839,000000	74,845201
838,000000	112,327029
837,000000	80,385448
836,000000	80,305526
835,000000	80,348161
834,000000	80,344828
833,000000	80,583242
832,000000	80,656519
831,000000	80,877165
830,000000	80,513565
829,000000	80,664993
828,000000	80,806732
827,000000	80,490717
826,000000	80,482367
825,000000	80,755673
824,000000	80,835175
823,000000	80,912286
822,000000	80,345240
821,000000	80,814944
820,000000	80,474044
819,000000	80,665901
818,000000	80,904904
817,000000	80,481432
816,000000	81,074627
815,000000	80,796258
814,000000	80,359235
813,000000	80,700939
812,000000	80,716939
811,000000	80,938407
810,000000	81,042799
809,000000	80,688000
808,000000	80,884367
807,000000	81,179203
806,000000	81,076748
805,000000	80,957897
804,000000	80,895108
803,000000	81,012004
802,000000	81,020315
801,000000	81,039641
800,000000	80,875536
799,000000	81,128673
798,000000	81,322114
797,000000	81,071005
796,000000	81,081788
795,000000	81,377830
794,000000	81,181965
793,000000	81,246331
792,000000	80,855086
791,000000	81,338763
790,000000	81,386016
789,000000	81,464512
788,000000	81,399784
787,000000	81,301332
786,000000	81,276589
785,000000	81,335601
784,000000	81,418396
783,000000	81,630737
782,000000	81,457501
781,000000	81,416654
780,000000	81,528459
779,000000	81,767779
778,000000	81,661374
777,000000	81,671228
776,000000	81,682110
775,000000	81,670447
774,000000	81,585400
773,000000	81,657824
772,000000	81,634217
771,000000	81,602774
770,000000	81,841112
769,000000	81,727656
768,000000	81,847202
767,000000	81,894564
766,000000	81,959298
765,000000	81,958571
764,000000	81,908742
763,000000	82,000404
762,000000	81,967357
761,000000	81,967645
760,000000	82,018006
759,000000	82,070673
758,000000	81,914750
757,000000	81,947169
756,000000	82,038369
755,000000	82,284025
754,000000	82,350626
753,000000	82,139773
752,000000	82,147410
751,000000	82,208861
750,000000	82,306419
749,000000	82,256225
748,000000	82,301443
747,000000	82,338882
746,000000	82,358832
745,000000	82,455076
744,000000	82,523807
743,000000	82,516087
742,000000	82,603856
741,000000	82,588573
740,000000	82,713934
739,000000	82,570283
738,000000	82,595676
737,000000	82,592888
736,000000	82,681333
735,000000	82,666833
734,000000	82,785282
733,000000	82,834924
732,000000	82,837132
731,000000	82,921339
730,000000	82,931578
729,000000	82,843101
728,000000	82,826621
727,000000	82,944554
726,000000	83,072256
725,000000	83,107458
724,000000	83,122440
723,000000	83,147305
722,000000	83,141483
721,000000	83,153967
720,000000	83,207780
719,000000	83,335833
718,000000	83,427268
717,000000	83,370245
716,000000	83,373840
715,000000	83,444275
714,000000	83,456584
713,000000	83,467390
712,000000	83,545103
711,000000	83,659201
710,000000	83,624178
709,000000	83,669384
708,000000	83,721527
707,000000	83,737357
706,000000	83,809299
705,000000	83,877473
704,000000	83,776567
703,000000	83,889646
702,000000	83,965089
701,000000	83,897756
700,000000	84,020704
699,000000	84,062681
698,000000	84,017535
697,000000	84,092395
696,000000	84,243918
695,000000	84,266696
694,000000	84,260552
693,000000	84,351945
692,000000	84,449691
691,000000	84,445838
690,000000	84,458189
689,000000	84,469079
688,000000	84,585369
687,000000	84,631373
686,000000	84,657269
685,000000	84,707923
684,000000	84,686181
683,000000	84,744165
682,000000	84,812261
681,000000	84,879580
680,000000	84,828031
679,000000	84,830475
678,000000	84,933783
677,000000	85,039398
676,000000	85,074243
675,000000	85,126802
674,000000	85,185880
673,000000	85,205719
672,000000	85,300247
671,000000	85,363220
670,000000	85,380541
669,000000	85,340365
668,000000	85,349926
667,000000	85,474508
666,000000	85,557347
665,000000	85,592274
664,000000	85,642968
663,000000	85,743209
662,000000	85,733318
661,000000	85,829656
660,000000	85,881304
659,000000	85,888769
658,000000	85,999257
657,000000	86,017565
656,000000	86,071782
655,000000	86,121353
654,000000	86,182859
653,000000	86,272928
652,000000	86,315007
651,000000	86,345994
650,000000	86,381515
649,000000	86,448602
648,000000	86,481539
647,000000	86,592133
646,000000	86,631385
645,000000	86,620206
644,000000	86,735676
643,000000	86,831425
642,000000	86,823965
641,000000	86,868715
640,000000	86,819003
639,000000	86,948246
638,000000	87,119248
637,000000	87,142307
636,000000	87,173401
635,000000	87,140501
634,000000	87,211373
633,000000	87,316146
632,000000	87,332505
631,000000	87,350205
630,000000	87,407696
629,000000	87,549175
628,000000	87,640857
627,000000	87,651040
626,000000	87,727336
625,000000	87,822054
624,000000	87,801553
623,000000	87,849353
622,000000	87,981119
621,000000	88,022593
620,000000	88,083053
619,000000	88,120088
618,000000	88,151762
617,000000	88,240551
616,000000	88,299132
615,000000	88,278256
614,000000	88,395434
613,000000	88,513070
612,000000	88,573428
611,000000	88,575314
610,000000	88,673830
609,000000	88,703302
608,000000	88,808184
607,000000	88,759867
606,000000	88,832434
605,000000	88,897833
604,000000	89,020991
603,000000	89,085010
602,000000	89,115206
601,000000	89,157701
600,000000	89,175438
599,000000	89,259080
598,000000	89,331766
597,000000	89,485113
596,000000	89,553557
595,000000	89,535996
594,000000	89,551647
593,000000	89,607382
592,000000	89,738552
591,000000	89,833545
590,000000	89,795160
589,000000	89,900817
588,000000	89,937165
587,000000	89,985947
586,000000	89,959772
585,000000	90,122063
584,000000	90,176499
583,000000	90,191908
582,000000	90,244534
581,000000	90,305291
580,000000	90,362340
579,000000	90,479910
578,000000	90,488441
577,000000	90,477932
576,000000	90,639008
575,000000	90,651653
574,000000	90,702114
573,000000	90,705911
572,000000	90,787518
571,000000	90,823533
570,000000	90,852164
569,000000	90,972213
568,000000	91,004174
567,000000	90,999960
566,000000	91,135122
565,000000	91,164861
564,000000	91,211233
563,000000	91,232116
562,000000	91,280675
561,000000	91,327442
560,000000	91,363146
559,000000	91,464966
558,000000	91,499805
557,000000	91,572355
556,000000	91,545512
555,000000	91,547933
554,000000	91,679478
553,000000	91,719396
552,000000	91,765406
551,000000	91,761384
550,000000	91,904663
549,000000	91,874124
548,000000	92,026792
547,000000	92,015153
546,000000	91,998284
545,000000	92,005404
544,000000	92,061606
543,000000	92,054375
542,000000	92,064059
541,000000	92,184752
540,000000	92,197080
539,000000	92,240433
538,000000	92,243222
537,000000	92,270622
536,000000	92,373035
535,000000	92,387449
534,000000	92,376604
533,000000	92,278501
532,000000	92,297216
531,000000	92,325759
530,000000	92,380782
529,000000	92,476511
528,000000	92,404225
527,000000	92,408940
526,000000	92,367078
525,000000	92,415919
524,000000	92,489729
523,000000	92,511490
522,000000	92,466367
521,000000	92,403248
520,000000	92,496062
519,000000	92,443589
518,000000	92,386940
517,000000	92,483391
516,000000	92,368454
515,000000	92,490839
514,000000	92,355754
513,000000	92,406834
512,000000	92,470932
511,000000	92,410920
510,000000	92,501966
509,000000	92,314180
508,000000	92,322869
507,000000	92,297327
506,000000	92,366248
505,000000	92,187002
504,000000	92,226528
503,000000	92,234314
502,000000	92,192015
501,000000	92,208878
500,000000	92,212172
499,000000	92,107618
498,000000	91,985799
497,000000	92,011111
496,000000	91,957131
495,000000	91,963839
494,000000	91,869508
493,000000	91,837789
492,000000	91,832056
491,000000	91,713544
490,000000	91,687067
489,000000	91,613461
488,000000	91,507419
487,000000	91,400034
486,000000	91,481641
485,000000	91,290350
484,000000	91,299936
483,000000	91,096585
482,000000	91,072357
481,000000	91,041755
480,000000	90,965621
479,000000	90,864288
478,000000	90,718868
477,000000	90,662709
476,000000	90,595107
475,000000	90,449675
474,000000	90,335173
473,000000	90,308330
472,000000	90,225821
471,000000	90,117422
470,000000	89,956765
469,000000	89,795533
468,000000	89,788493
467,000000	89,606825
466,000000	89,578048
465,000000	89,341468
464,000000	89,176865
463,000000	89,159932
462,000000	88,950549
461,000000	88,756378
460,000000	88,759238
459,000000	88,492571
458,000000	88,353834
457,000000	88,270945
456,000000	88,075197
455,000000	88,085116
454,000000	87,899380
453,000000	87,760385
452,000000	87,587158
451,000000	87,316074
450,000000	87,119034
449,000000	87,003519
448,000000	86,844833
447,000000	86,598087
446,000000	86,448261
445,000000	86,354941
444,000000	86,289199
443,000000	86,052456
442,000000	85,840694
441,000000	85,586351
440,000000	85,414563
439,000000	85,188327
438,000000	84,947988
437,000000	84,794048
436,000000	84,577967
435,000000	84,292431
434,000000	84,194720
433,000000	83,985447
432,000000	83,773922
431,000000	83,465036
430,000000	83,310091
429,000000	83,079854
428,000000	82,921950
427,000000	82,715300
426,000000	82,512917
425,000000	82,312647
424,000000	82,034761
423,000000	81,803413
422,000000	81,664996
421,000000	81,353160
420,000000	81,104336
419,000000	80,854775
418,000000	80,612950
417,000000	80,455527
416,000000	80,301938
415,000000	79,996799
414,000000	79,696625
413,000000	79,572806
412,000000	79,426572
411,000000	79,159679
410,000000	78,817563
409,000000	78,604165
408,000000	78,495265
407,000000	78,202807
406,000000	77,998111
405,000000	77,768902
404,000000	77,602522
403,000000	77,343644
402,000000	77,057017
401,000000	76,751221
400,000000	76,554910
399,000000	76,372939
398,000000	76,126750
397,000000	75,869012
396,000000	75,697432
395,000000	75,503089
394,000000	75,296323
393,000000	75,095119
392,000000	74,813073
391,000000	74,540116
390,000000	74,380497
389,000000	74,185777
388,000000	73,875673
387,000000	73,640416
386,000000	73,530832
385,000000	73,430515
384,000000	73,328081
383,000000	73,049565
382,000000	72,719279
381,000000	72,568921
380,000000	72,371132
379,000000	72,179961
378,000000	71,962654
377,000000	71,737030
376,000000	71,397931
375,000000	71,151597
374,000000	70,961369
373,000000	70,869912
372,000000	71,253075
371,000000	70,948342
370,000000	70,310845
369,000000	70,464336
368,000000	70,428004
367,000000	70,040552
366,000000	69,537971
365,000000	69,476178
364,000000	69,612494
363,000000	69,041844
362,000000	68,770898
361,000000	68,571319
360,000000	68,404058
359,000000	68,531636
358,000000	68,119558
357,000000	68,040505
356,000000	67,945271
355,000000	67,845339
354,000000	67,436489
353,000000	66,996792
352,000000	67,030839
351,000000	66,595517
350,000000	66,603507
349,000000	66,524315
348,000000	66,124167
347,000000	65,877492
346,000000	65,891879
345,000000	65,231949
344,000000	64,843328
343,000000	64,702140
342,000000	63,989950
341,000000	63,741266
340,000000	63,704863
339,000000	63,254660
338,000000	62,480479
337,000000	62,048487
336,000000	61,522032
335,000000	61,032168
334,000000	60,346117
333,000000	59,116324
332,000000	58,481322
331,000000	57,893496
330,000000	57,381376
329,000000	56,530469
328,000000	55,535029
327,000000	54,334913
326,000000	52,604323
325,000000	51,943044
324,000000	51,281367
323,000000	49,713815
322,000000	48,399547
321,000000	47,509356
320,000000	46,199331
319,000000	44,594394
318,000000	43,112154
317,000000	42,134347
316,000000	40,556952
315,000000	38,925479
314,000000	37,425445
313,000000	35,926271
312,000000	34,524303
311,000000	33,046831
310,000000	31,587083
309,000000	30,073420
308,000000	28,725189
307,000000	27,395484
306,000000	25,979046
305,000000	24,676163
304,000000	23,404847
303,000000	22,188451
302,000000	21,131614
301,000000	19,892304
300,000000	18,822801
299,000000	17,776328
298,000000	16,748321
297,000000	15,844124
296,000000	15,001819
295,000000	14,094538
294,000000	13,236069
293,000000	12,497770
292,000000	11,781349
291,000000	11,079647
290,000000	10,345794
289,000000	9,738920
288,000000	9,206685
287,000000	8,698201
286,000000	8,120653
285,000000	7,687405
284,000000	7,240810
283,000000	6,793472
282,000000	6,379135
281,000000	6,033282
280,000000	5,687366
279,000000	5,377217
278,000000	5,078122
277,000000	4,854628
276,000000	4,597534
275,000000	4,372738
274,000000	4,155991
273,000000	3,950974
272,000000	3,761090
271,000000	3,574066
270,000000	3,437258
269,000000	3,283337
268,000000	3,139649
267,000000	3,036920
266,000000	2,925210
265,000000	2,815506
264,000000	2,728551
263,000000	2,639085
262,000000	2,538791
261,000000	2,453496
260,000000	2,395960
259,000000	2,320677
258,000000	2,261826
257,000000	2,199372
256,000000	2,161268
255,000000	2,095216
254,000000	2,032884
253,000000	2,021040
252,000000	1,962139
251,000000	1,906253
250,000000	1,867903
